P (MPa)		T (K)		r (km)		rho (kg m-3)	VP (km s-1)	VS (km s-1)	QS/gamma	KS (GPa)	GS (GPa)	g (m/s2)	phase	k (S m-1)	
0.00000e+00	1.10000e+02	2.41030e+03	9.32831e+02	3.87940e+00	1.96225e+00	4.56125e+01	9.24000e+00	3.58800e+00	1.70215e+00	1.00000e+00	0.00000e+00
1.63693e+00	1.14806e+02	2.40927e+03	9.32831e+02	3.88082e+00	1.96323e+00	4.56125e+01	9.24539e+00	3.59151e+00	1.70280e+00	1.00000e+00	0.00000e+00
3.27386e+00	1.19822e+02	2.40824e+03	9.32943e+02	3.88229e+00	1.96422e+00	4.56125e+01	9.25078e+00	3.59502e+00	1.70345e+00	1.00000e+00	0.00000e+00
4.91079e+00	1.25057e+02	2.40721e+03	9.33054e+02	3.88380e+00	1.96524e+00	4.56125e+01	9.25614e+00	3.59852e+00	1.70410e+00	1.00000e+00	0.00000e+00
6.54772e+00	1.30521e+02	2.40618e+03	9.33163e+02	3.88537e+00	1.96629e+00	4.56125e+01	9.26150e+00	3.60202e+00	1.70476e+00	1.00000e+00	0.00000e+00
8.18465e+00	1.36224e+02	2.40515e+03	9.33272e+02	3.88699e+00	1.96737e+00	4.56125e+01	9.26684e+00	3.60551e+00	1.70541e+00	1.00000e+00	0.00000e+00
9.82158e+00	1.42176e+02	2.40412e+03	9.33379e+02	3.88869e+00	1.96848e+00	4.56125e+01	9.27216e+00	3.60900e+00	1.70606e+00	1.00000e+00	0.00000e+00
1.14585e+01	1.48388e+02	2.40309e+03	9.33485e+02	3.89047e+00	1.96963e+00	4.56125e+01	9.27747e+00	3.61248e+00	1.70672e+00	1.00000e+00	0.00000e+00
1.30954e+01	1.54871e+02	2.40207e+03	9.33591e+02	3.89233e+00	1.97083e+00	4.56125e+01	9.28277e+00	3.61596e+00	1.70737e+00	1.00000e+00	0.00000e+00
1.47324e+01	1.61638e+02	2.40104e+03	9.33695e+02	3.89430e+00	1.97208e+00	4.56125e+01	9.28805e+00	3.61943e+00	1.70803e+00	1.00000e+00	0.00000e+00
1.63693e+01	1.68700e+02	2.40001e+03	9.33797e+02	3.89638e+00	1.97339e+00	4.56125e+01	9.29332e+00	3.62289e+00	1.70869e+00	1.00000e+00	0.00000e+00
1.80062e+01	1.76071e+02	2.39899e+03	9.33899e+02	3.89859e+00	1.97476e+00	4.56125e+01	9.29858e+00	3.62635e+00	1.70935e+00	1.00000e+00	0.00000e+00
1.96432e+01	1.83764e+02	2.39796e+03	9.33999e+02	3.90095e+00	1.97621e+00	4.56125e+01	9.30382e+00	3.62981e+00	1.71000e+00	1.00000e+00	0.00000e+00
2.12801e+01	1.91793e+02	2.39694e+03	9.34099e+02	3.90346e+00	1.97773e+00	4.56125e+01	9.30905e+00	3.63326e+00	1.71066e+00	1.00000e+00	0.00000e+00
2.29170e+01	2.00173e+02	2.39591e+03	9.34196e+02	3.90615e+00	1.97935e+00	4.56125e+01	9.31426e+00	3.63670e+00	1.71132e+00	1.00000e+00	0.00000e+00
2.45540e+01	2.08919e+02	2.39489e+03	9.34293e+02	3.90902e+00	1.98106e+00	4.56125e+01	9.31946e+00	3.64014e+00	1.71199e+00	1.00000e+00	0.00000e+00
2.61909e+01	2.18047e+02	2.39386e+03	9.34388e+02	3.91210e+00	1.98287e+00	4.56125e+01	9.32465e+00	3.64357e+00	1.71265e+00	1.00000e+00	0.00000e+00
2.78278e+01	2.27574e+02	2.39284e+03	9.34482e+02	3.91540e+00	1.98479e+00	4.56125e+01	9.32982e+00	3.64700e+00	1.71331e+00	1.00000e+00	0.00000e+00
2.94647e+01	2.37517e+02	2.39182e+03	9.34575e+02	3.91891e+00	1.98682e+00	4.56125e+01	9.33498e+00	3.65042e+00	1.71397e+00	1.00000e+00	0.00000e+00
3.11017e+01	2.47894e+02	2.39080e+03	9.34666e+02	3.92263e+00	1.98896e+00	4.56125e+01	9.34012e+00	3.65384e+00	1.71464e+00	1.00000e+00	0.00000e+00
3.27386e+01	2.47914e+02	2.38978e+03	9.34756e+02	3.92360e+00	1.98970e+00	4.56125e+01	9.34525e+00	3.65725e+00	1.71530e+00	1.00000e+00	0.00000e+00
3.43755e+01	2.47933e+02	2.38876e+03	9.34845e+02	3.92456e+00	1.99044e+00	4.56125e+01	9.35037e+00	3.66066e+00	1.71597e+00	1.00000e+00	0.00000e+00
3.60125e+01	2.47953e+02	2.38773e+03	9.34932e+02	3.92551e+00	1.99117e+00	4.56125e+01	9.35547e+00	3.66406e+00	1.71663e+00	1.00000e+00	0.00000e+00
3.76494e+01	2.47973e+02	2.38671e+03	9.35018e+02	3.92647e+00	1.99191e+00	4.56125e+01	9.36056e+00	3.66745e+00	1.71730e+00	1.00000e+00	0.00000e+00
3.92863e+01	2.47993e+02	2.38570e+03	9.35102e+02	3.92742e+00	1.99264e+00	4.56125e+01	9.36563e+00	3.67084e+00	1.71797e+00	1.00000e+00	0.00000e+00
4.09233e+01	2.48013e+02	2.38468e+03	9.35185e+02	3.92837e+00	1.99337e+00	4.56125e+01	9.37069e+00	3.67423e+00	1.71864e+00	1.00000e+00	0.00000e+00
4.25602e+01	2.48033e+02	2.38366e+03	9.35266e+02	3.92932e+00	1.99410e+00	4.56125e+01	9.37574e+00	3.67761e+00	1.71931e+00	1.00000e+00	0.00000e+00
4.41971e+01	2.48054e+02	2.38264e+03	9.35345e+02	3.93026e+00	1.99483e+00	4.56125e+01	9.38077e+00	3.68098e+00	1.71998e+00	1.00000e+00	0.00000e+00
4.58340e+01	2.48074e+02	2.38162e+03	9.35424e+02	3.93120e+00	1.99556e+00	4.56125e+01	9.38579e+00	3.68435e+00	1.72065e+00	1.00000e+00	0.00000e+00
4.74710e+01	2.48095e+02	2.38061e+03	9.35500e+02	3.93214e+00	1.99628e+00	4.56125e+01	9.39080e+00	3.68771e+00	1.72132e+00	1.00000e+00	0.00000e+00
4.91079e+01	2.48116e+02	2.37959e+03	9.35575e+02	3.93308e+00	1.99701e+00	4.56125e+01	9.39579e+00	3.69107e+00	1.72200e+00	1.00000e+00	0.00000e+00
5.07448e+01	2.48137e+02	2.37857e+03	9.35648e+02	3.93401e+00	1.99773e+00	4.56125e+01	9.40076e+00	3.69442e+00	1.72267e+00	1.00000e+00	0.00000e+00
5.23818e+01	2.48158e+02	2.37756e+03	9.35720e+02	3.93494e+00	1.99845e+00	4.56125e+01	9.40573e+00	3.69777e+00	1.72335e+00	1.00000e+00	0.00000e+00
5.40187e+01	2.48179e+02	2.37654e+03	9.35790e+02	3.93587e+00	1.99917e+00	4.56125e+01	9.41067e+00	3.70111e+00	1.72402e+00	1.00000e+00	0.00000e+00
5.56556e+01	2.48200e+02	2.37553e+03	9.35858e+02	3.93679e+00	1.99988e+00	4.56125e+01	9.41561e+00	3.70445e+00	1.72470e+00	1.00000e+00	0.00000e+00
5.72926e+01	2.48222e+02	2.37451e+03	9.35925e+02	3.93771e+00	2.00060e+00	4.56125e+01	9.42053e+00	3.70778e+00	1.72538e+00	1.00000e+00	0.00000e+00
5.89295e+01	2.48243e+02	2.37350e+03	9.35990e+02	3.93863e+00	2.00131e+00	4.56125e+01	9.42544e+00	3.71111e+00	1.72605e+00	1.00000e+00	0.00000e+00
6.05664e+01	2.48265e+02	2.37249e+03	9.36053e+02	3.93955e+00	2.00203e+00	4.56125e+01	9.43033e+00	3.71443e+00	1.72673e+00	1.00000e+00	0.00000e+00
6.22033e+01	2.48287e+02	2.37147e+03	9.36114e+02	3.94047e+00	2.00274e+00	4.56125e+01	9.43521e+00	3.71774e+00	1.72741e+00	1.00000e+00	0.00000e+00
6.38403e+01	2.48309e+02	2.37046e+03	9.36174e+02	3.94138e+00	2.00345e+00	4.56125e+01	9.44008e+00	3.72105e+00	1.72809e+00	1.00000e+00	0.00000e+00
6.54772e+01	2.48331e+02	2.36945e+03	9.36232e+02	3.94229e+00	2.00415e+00	4.56125e+01	9.44493e+00	3.72436e+00	1.72877e+00	1.00000e+00	0.00000e+00
6.71141e+01	2.48353e+02	2.36844e+03	9.36288e+02	3.94320e+00	2.00486e+00	4.56125e+01	9.44977e+00	3.72766e+00	1.72946e+00	1.00000e+00	0.00000e+00
6.87511e+01	2.48376e+02	2.36743e+03	9.36342e+02	3.94410e+00	2.00557e+00	4.56125e+01	9.45459e+00	3.73095e+00	1.73014e+00	1.00000e+00	0.00000e+00
7.03880e+01	2.48398e+02	2.36642e+03	9.36394e+02	3.94501e+00	2.00627e+00	4.56125e+01	9.45940e+00	3.73424e+00	1.73082e+00	1.00000e+00	0.00000e+00
7.20249e+01	2.48421e+02	2.36541e+03	9.36444e+02	3.94591e+00	2.00697e+00	4.56125e+01	9.46419e+00	3.73752e+00	1.73151e+00	1.00000e+00	0.00000e+00
7.36619e+01	2.48444e+02	2.36440e+03	9.36493e+02	3.94681e+00	2.00768e+00	4.56125e+01	9.46898e+00	3.74080e+00	1.73219e+00	1.00000e+00	0.00000e+00
7.52988e+01	2.48467e+02	2.36339e+03	9.36539e+02	3.94771e+00	2.00838e+00	4.56125e+01	9.47374e+00	3.74407e+00	1.73288e+00	1.00000e+00	0.00000e+00
7.69357e+01	2.48490e+02	2.36238e+03	9.36584e+02	3.94860e+00	2.00908e+00	4.56125e+01	9.47850e+00	3.74734e+00	1.73357e+00	1.00000e+00	0.00000e+00
7.85727e+01	2.48513e+02	2.36137e+03	9.36626e+02	3.94949e+00	2.00977e+00	4.56125e+01	9.48324e+00	3.75060e+00	1.73426e+00	1.00000e+00	0.00000e+00
8.02096e+01	2.48537e+02	2.36036e+03	9.36666e+02	3.95038e+00	2.01047e+00	4.56125e+01	9.48796e+00	3.75386e+00	1.73495e+00	1.00000e+00	0.00000e+00
8.18465e+01	2.48560e+02	2.35936e+03	9.36705e+02	3.95127e+00	2.01116e+00	4.56125e+01	9.49268e+00	3.75711e+00	1.73564e+00	1.00000e+00	0.00000e+00
8.34834e+01	2.48584e+02	2.35835e+03	9.36741e+02	3.95216e+00	2.01186e+00	4.56125e+01	9.49737e+00	3.76035e+00	1.73633e+00	1.00000e+00	0.00000e+00
8.51204e+01	2.48608e+02	2.35734e+03	9.36775e+02	3.95304e+00	2.01255e+00	4.56125e+01	9.50206e+00	3.76359e+00	1.73702e+00	1.00000e+00	0.00000e+00
8.67573e+01	2.48632e+02	2.35634e+03	9.36808e+02	3.95393e+00	2.01324e+00	4.56125e+01	9.50673e+00	3.76683e+00	1.73771e+00	1.00000e+00	0.00000e+00
8.83942e+01	2.48656e+02	2.35533e+03	9.36838e+02	3.95481e+00	2.01393e+00	4.56125e+01	9.51139e+00	3.77006e+00	1.73841e+00	1.00000e+00	0.00000e+00
9.00312e+01	2.48681e+02	2.35433e+03	9.36866e+02	3.95569e+00	2.01462e+00	4.56125e+01	9.51603e+00	3.77328e+00	1.73910e+00	1.00000e+00	0.00000e+00
9.16681e+01	2.48705e+02	2.35332e+03	9.36891e+02	3.95656e+00	2.01531e+00	4.56125e+01	9.52066e+00	3.77650e+00	1.73980e+00	1.00000e+00	0.00000e+00
9.33050e+01	2.48730e+02	2.35232e+03	9.36915e+02	3.95744e+00	2.01600e+00	4.56125e+01	9.52527e+00	3.77971e+00	1.74049e+00	1.00000e+00	0.00000e+00
9.49420e+01	2.48755e+02	2.35131e+03	9.36936e+02	3.95831e+00	2.01668e+00	4.56125e+01	9.52987e+00	3.78292e+00	1.74119e+00	1.00000e+00	0.00000e+00
9.65789e+01	2.48780e+02	2.35031e+03	9.36956e+02	3.95918e+00	2.01737e+00	4.56125e+01	9.53446e+00	3.78612e+00	1.74189e+00	1.00000e+00	0.00000e+00
9.82158e+01	2.48805e+02	2.34931e+03	9.36973e+02	3.96005e+00	2.01805e+00	4.56125e+01	9.53903e+00	3.78932e+00	1.74259e+00	1.00000e+00	0.00000e+00
9.98527e+01	2.48830e+02	2.34830e+03	9.36987e+02	3.96092e+00	2.01873e+00	4.56125e+01	9.54359e+00	3.79251e+00	1.74329e+00	1.00000e+00	0.00000e+00
1.01490e+02	2.48855e+02	2.34730e+03	9.37000e+02	3.96178e+00	2.01941e+00	4.56125e+01	9.54814e+00	3.79570e+00	1.74399e+00	1.00000e+00	0.00000e+00
1.03127e+02	2.48881e+02	2.34630e+03	9.37010e+02	3.96265e+00	2.02009e+00	4.56125e+01	9.55267e+00	3.79888e+00	1.74469e+00	1.00000e+00	0.00000e+00
1.04764e+02	2.48907e+02	2.34530e+03	9.37017e+02	3.96351e+00	2.02077e+00	4.56125e+01	9.55718e+00	3.80206e+00	1.74539e+00	1.00000e+00	0.00000e+00
1.06400e+02	2.48933e+02	2.34430e+03	9.37023e+02	3.96437e+00	2.02145e+00	4.56125e+01	9.56169e+00	3.80523e+00	1.74610e+00	1.00000e+00	0.00000e+00
1.08037e+02	2.48959e+02	2.34330e+03	9.37026e+02	3.96523e+00	2.02213e+00	4.56125e+01	9.56618e+00	3.80839e+00	1.74680e+00	1.00000e+00	0.00000e+00
1.09674e+02	2.48985e+02	2.34230e+03	9.37026e+02	3.96608e+00	2.02280e+00	4.56125e+01	9.57065e+00	3.81155e+00	1.74751e+00	1.00000e+00	0.00000e+00
1.11311e+02	2.49012e+02	2.34130e+03	9.37025e+02	3.96694e+00	2.02348e+00	4.56125e+01	9.57511e+00	3.81471e+00	1.74822e+00	1.00000e+00	0.00000e+00
1.12948e+02	2.49038e+02	2.34030e+03	9.37020e+02	3.96779e+00	2.02415e+00	4.56125e+01	9.57956e+00	3.81786e+00	1.74892e+00	1.00000e+00	0.00000e+00
1.14585e+02	2.49065e+02	2.33930e+03	9.37014e+02	3.96865e+00	2.02483e+00	4.56125e+01	9.58399e+00	3.82100e+00	1.74963e+00	1.00000e+00	0.00000e+00
1.16222e+02	2.49092e+02	2.33830e+03	9.37004e+02	3.96950e+00	2.02550e+00	4.56125e+01	9.58841e+00	3.82414e+00	1.75034e+00	1.00000e+00	0.00000e+00
1.17859e+02	2.49119e+02	2.33730e+03	9.36993e+02	3.97035e+00	2.02617e+00	4.56125e+01	9.59282e+00	3.82727e+00	1.75105e+00	1.00000e+00	0.00000e+00
1.19496e+02	2.49146e+02	2.33631e+03	9.36979e+02	3.97119e+00	2.02684e+00	4.56125e+01	9.59721e+00	3.83040e+00	1.75176e+00	1.00000e+00	0.00000e+00
1.21133e+02	2.49174e+02	2.33531e+03	9.36962e+02	3.97204e+00	2.02751e+00	4.56125e+01	9.60159e+00	3.83352e+00	1.75248e+00	1.00000e+00	0.00000e+00
1.22770e+02	2.49201e+02	2.33431e+03	9.36943e+02	3.97288e+00	2.02818e+00	4.56125e+01	9.60595e+00	3.83664e+00	1.75319e+00	1.00000e+00	0.00000e+00
1.24407e+02	2.49229e+02	2.33332e+03	9.36921e+02	3.97373e+00	2.02884e+00	4.56125e+01	9.61030e+00	3.83975e+00	1.75391e+00	1.00000e+00	0.00000e+00
1.26044e+02	2.49257e+02	2.33232e+03	9.36896e+02	3.97457e+00	2.02951e+00	4.56125e+01	9.61464e+00	3.84285e+00	1.75462e+00	1.00000e+00	0.00000e+00
1.27681e+02	2.49285e+02	2.33132e+03	9.36869e+02	3.97541e+00	2.03017e+00	4.56125e+01	9.61896e+00	3.84596e+00	1.75534e+00	1.00000e+00	0.00000e+00
1.29317e+02	2.49313e+02	2.33033e+03	9.36839e+02	3.97625e+00	2.03084e+00	4.56125e+01	9.62327e+00	3.84905e+00	1.75605e+00	1.00000e+00	0.00000e+00
1.30954e+02	2.49342e+02	2.32933e+03	9.36807e+02	3.97708e+00	2.03150e+00	4.56125e+01	9.62756e+00	3.85214e+00	1.75677e+00	1.00000e+00	0.00000e+00
1.32591e+02	2.49370e+02	2.32834e+03	9.36772e+02	3.97792e+00	2.03217e+00	4.56125e+01	9.63184e+00	3.85523e+00	1.75749e+00	1.00000e+00	0.00000e+00
1.34228e+02	2.49399e+02	2.32734e+03	9.36734e+02	3.97875e+00	2.03283e+00	4.56125e+01	9.63611e+00	3.85831e+00	1.75821e+00	1.00000e+00	0.00000e+00
1.35865e+02	2.49428e+02	2.32635e+03	9.36693e+02	3.97958e+00	2.03349e+00	4.56125e+01	9.64036e+00	3.86138e+00	1.75894e+00	1.00000e+00	0.00000e+00
1.37502e+02	2.49457e+02	2.32536e+03	9.36650e+02	3.98042e+00	2.03415e+00	4.56125e+01	9.64460e+00	3.86445e+00	1.75966e+00	1.00000e+00	0.00000e+00
1.39139e+02	2.49487e+02	2.32436e+03	9.36604e+02	3.98125e+00	2.03481e+00	4.56125e+01	9.64882e+00	3.86751e+00	1.76038e+00	1.00000e+00	0.00000e+00
1.40776e+02	2.49516e+02	2.32337e+03	9.36554e+02	3.98207e+00	2.03547e+00	4.56125e+01	9.65303e+00	3.87057e+00	1.76111e+00	1.00000e+00	0.00000e+00
1.42413e+02	2.49546e+02	2.32238e+03	9.36503e+02	3.98290e+00	2.03612e+00	4.56125e+01	9.65723e+00	3.87362e+00	1.76183e+00	1.00000e+00	0.00000e+00
1.44050e+02	2.49576e+02	2.32139e+03	9.36448e+02	3.98373e+00	2.03678e+00	4.56125e+01	9.66141e+00	3.87667e+00	1.76256e+00	1.00000e+00	0.00000e+00
1.45687e+02	2.49606e+02	2.32039e+03	9.36390e+02	3.98455e+00	2.03743e+00	4.56125e+01	9.66558e+00	3.87971e+00	1.76329e+00	1.00000e+00	0.00000e+00
1.47324e+02	2.49636e+02	2.31940e+03	9.36330e+02	3.98538e+00	2.03809e+00	4.56125e+01	9.66974e+00	3.88275e+00	1.76402e+00	1.00000e+00	0.00000e+00
1.48961e+02	2.49667e+02	2.31841e+03	9.36266e+02	3.98620e+00	2.03874e+00	4.56125e+01	9.67388e+00	3.88578e+00	1.76475e+00	1.00000e+00	0.00000e+00
1.50598e+02	2.49697e+02	2.31742e+03	9.36200e+02	3.98702e+00	2.03940e+00	4.56125e+01	9.67800e+00	3.88880e+00	1.76548e+00	1.00000e+00	0.00000e+00
1.52235e+02	2.49728e+02	2.31643e+03	9.36131e+02	3.98784e+00	2.04005e+00	4.56125e+01	9.68212e+00	3.89182e+00	1.76621e+00	1.00000e+00	0.00000e+00
1.53871e+02	2.49759e+02	2.31544e+03	9.36058e+02	3.98865e+00	2.04070e+00	4.56125e+01	9.68622e+00	3.89484e+00	1.76694e+00	1.00000e+00	0.00000e+00
1.55508e+02	2.49790e+02	2.31445e+03	9.35983e+02	3.98947e+00	2.04135e+00	4.56125e+01	9.69030e+00	3.89785e+00	1.76768e+00	1.00000e+00	0.00000e+00
1.57145e+02	2.49822e+02	2.31346e+03	9.35904e+02	3.99029e+00	2.04200e+00	4.56125e+01	9.69437e+00	3.90085e+00	1.76841e+00	1.00000e+00	0.00000e+00
1.58782e+02	2.55580e+02	2.31247e+03	9.34884e+02	3.99270e+00	2.04347e+00	4.56125e+01	9.69843e+00	3.90385e+00	1.76915e+00	1.00000e+00	0.00000e+00
1.60419e+02	2.55640e+02	2.31148e+03	9.35003e+02	3.99352e+00	2.04412e+00	4.56125e+01	9.70247e+00	3.90685e+00	1.76989e+00	1.00000e+00	0.00000e+00
1.62056e+02	2.55700e+02	2.31050e+03	9.35650e+02	3.99434e+00	2.04477e+00	4.56125e+01	9.70650e+00	3.90983e+00	1.77063e+00	1.00000e+00	0.00000e+00
1.63918e+02	2.55707e+02	2.30960e+03	1.16974e+03	1.78537e+00	0.00000e+00	0.00000e+00	3.72861e+00	0.00000e+00	1.77112e+00	0.00000e+00	1.37893e+00
1.65780e+02	2.55715e+02	2.30870e+03	1.17032e+03	1.78864e+00	0.00000e+00	0.00000e+00	3.74414e+00	0.00000e+00	1.77162e+00	0.00000e+00	1.38042e+00
1.67642e+02	2.55723e+02	2.30780e+03	1.17090e+03	1.79190e+00	0.00000e+00	0.00000e+00	3.75965e+00	0.00000e+00	1.77212e+00	0.00000e+00	1.38193e+00
1.69504e+02	2.55731e+02	2.30690e+03	1.17148e+03	1.79514e+00	0.00000e+00	0.00000e+00	3.77514e+00	0.00000e+00	1.77261e+00	0.00000e+00	1.38344e+00
1.71367e+02	2.55739e+02	2.30601e+03	1.17205e+03	1.79838e+00	0.00000e+00	0.00000e+00	3.79062e+00	0.00000e+00	1.77311e+00	0.00000e+00	1.38497e+00
1.73229e+02	2.55748e+02	2.30511e+03	1.17263e+03	1.80161e+00	0.00000e+00	0.00000e+00	3.80609e+00	0.00000e+00	1.77361e+00	0.00000e+00	1.38650e+00
1.75091e+02	2.55757e+02	2.30422e+03	1.17320e+03	1.80482e+00	0.00000e+00	0.00000e+00	3.82154e+00	0.00000e+00	1.77410e+00	0.00000e+00	1.38805e+00
1.76953e+02	2.55765e+02	2.30332e+03	1.17377e+03	1.80802e+00	0.00000e+00	0.00000e+00	3.83698e+00	0.00000e+00	1.77460e+00	0.00000e+00	1.38961e+00
1.78815e+02	2.55774e+02	2.30243e+03	1.17433e+03	1.81122e+00	0.00000e+00	0.00000e+00	3.85241e+00	0.00000e+00	1.77510e+00	0.00000e+00	1.39117e+00
1.80677e+02	2.55784e+02	2.30154e+03	1.17490e+03	1.81440e+00	0.00000e+00	0.00000e+00	3.86782e+00	0.00000e+00	1.77560e+00	0.00000e+00	1.39275e+00
1.82539e+02	2.55793e+02	2.30064e+03	1.17546e+03	1.81757e+00	0.00000e+00	0.00000e+00	3.88321e+00	0.00000e+00	1.77609e+00	0.00000e+00	1.39434e+00
1.84401e+02	2.55803e+02	2.29975e+03	1.17602e+03	1.82073e+00	0.00000e+00	0.00000e+00	3.89859e+00	0.00000e+00	1.77659e+00	0.00000e+00	1.39594e+00
1.86263e+02	2.55813e+02	2.29886e+03	1.17658e+03	1.82388e+00	0.00000e+00	0.00000e+00	3.91396e+00	0.00000e+00	1.77709e+00	0.00000e+00	1.39755e+00
1.88125e+02	2.55823e+02	2.29797e+03	1.17714e+03	1.82702e+00	0.00000e+00	0.00000e+00	3.92931e+00	0.00000e+00	1.77759e+00	0.00000e+00	1.39917e+00
1.89988e+02	2.55833e+02	2.29708e+03	1.17770e+03	1.83015e+00	0.00000e+00	0.00000e+00	3.94465e+00	0.00000e+00	1.77809e+00	0.00000e+00	1.40080e+00
1.91850e+02	2.55843e+02	2.29619e+03	1.17825e+03	1.83328e+00	0.00000e+00	0.00000e+00	3.95998e+00	0.00000e+00	1.77858e+00	0.00000e+00	1.40244e+00
1.93712e+02	2.55854e+02	2.29531e+03	1.17880e+03	1.83639e+00	0.00000e+00	0.00000e+00	3.97529e+00	0.00000e+00	1.77908e+00	0.00000e+00	1.40410e+00
1.95574e+02	2.55864e+02	2.29442e+03	1.17935e+03	1.83949e+00	0.00000e+00	0.00000e+00	3.99059e+00	0.00000e+00	1.77958e+00	0.00000e+00	1.40576e+00
1.97436e+02	2.55875e+02	2.29353e+03	1.17990e+03	1.84258e+00	0.00000e+00	0.00000e+00	4.00587e+00	0.00000e+00	1.78008e+00	0.00000e+00	1.40744e+00
1.99298e+02	2.55886e+02	2.29264e+03	1.18045e+03	1.84566e+00	0.00000e+00	0.00000e+00	4.02114e+00	0.00000e+00	1.78058e+00	0.00000e+00	1.40912e+00
2.01160e+02	2.55898e+02	2.29176e+03	1.18099e+03	1.84873e+00	0.00000e+00	0.00000e+00	4.03640e+00	0.00000e+00	1.78108e+00	0.00000e+00	1.41082e+00
2.03022e+02	2.55909e+02	2.29087e+03	1.18153e+03	1.85179e+00	0.00000e+00	0.00000e+00	4.05164e+00	0.00000e+00	1.78158e+00	0.00000e+00	1.41253e+00
2.04884e+02	2.55920e+02	2.28999e+03	1.18207e+03	1.85484e+00	0.00000e+00	0.00000e+00	4.06687e+00	0.00000e+00	1.78208e+00	0.00000e+00	1.41425e+00
2.06746e+02	2.55932e+02	2.28911e+03	1.18261e+03	1.85789e+00	0.00000e+00	0.00000e+00	4.08208e+00	0.00000e+00	1.78257e+00	0.00000e+00	1.41598e+00
2.08609e+02	2.55944e+02	2.28822e+03	1.18315e+03	1.86092e+00	0.00000e+00	0.00000e+00	4.09729e+00	0.00000e+00	1.78307e+00	0.00000e+00	1.41772e+00
2.10471e+02	2.55956e+02	2.28734e+03	1.18369e+03	1.86395e+00	0.00000e+00	0.00000e+00	4.11248e+00	0.00000e+00	1.78357e+00	0.00000e+00	1.41947e+00
2.12333e+02	2.55968e+02	2.28646e+03	1.18422e+03	1.86696e+00	0.00000e+00	0.00000e+00	4.12766e+00	0.00000e+00	1.78407e+00	0.00000e+00	1.42123e+00
2.14195e+02	2.55981e+02	2.28558e+03	1.18475e+03	1.86997e+00	0.00000e+00	0.00000e+00	4.14283e+00	0.00000e+00	1.78457e+00	0.00000e+00	1.42300e+00
2.16057e+02	2.55993e+02	2.28470e+03	1.18529e+03	1.87297e+00	0.00000e+00	0.00000e+00	4.15798e+00	0.00000e+00	1.78507e+00	0.00000e+00	1.42478e+00
2.17919e+02	2.56006e+02	2.28382e+03	1.18581e+03	1.87595e+00	0.00000e+00	0.00000e+00	4.17312e+00	0.00000e+00	1.78557e+00	0.00000e+00	1.42657e+00
2.19781e+02	2.56019e+02	2.28294e+03	1.18634e+03	1.87893e+00	0.00000e+00	0.00000e+00	4.18825e+00	0.00000e+00	1.78608e+00	0.00000e+00	1.42837e+00
2.21643e+02	2.56032e+02	2.28206e+03	1.18687e+03	1.88191e+00	0.00000e+00	0.00000e+00	4.20337e+00	0.00000e+00	1.78658e+00	0.00000e+00	1.43018e+00
2.23505e+02	2.56045e+02	2.28118e+03	1.18739e+03	1.88487e+00	0.00000e+00	0.00000e+00	4.21848e+00	0.00000e+00	1.78708e+00	0.00000e+00	1.43200e+00
2.25367e+02	2.56058e+02	2.28031e+03	1.18791e+03	1.88782e+00	0.00000e+00	0.00000e+00	4.23357e+00	0.00000e+00	1.78758e+00	0.00000e+00	1.43382e+00
2.27230e+02	2.56072e+02	2.27943e+03	1.18844e+03	1.89077e+00	0.00000e+00	0.00000e+00	4.24865e+00	0.00000e+00	1.78808e+00	0.00000e+00	1.43566e+00
2.29092e+02	2.56085e+02	2.27855e+03	1.18895e+03	1.89370e+00	0.00000e+00	0.00000e+00	4.26371e+00	0.00000e+00	1.78858e+00	0.00000e+00	1.43750e+00
2.30954e+02	2.56099e+02	2.27768e+03	1.18947e+03	1.89663e+00	0.00000e+00	0.00000e+00	4.27876e+00	0.00000e+00	1.78908e+00	0.00000e+00	1.43935e+00
2.32816e+02	2.56113e+02	2.27680e+03	1.18999e+03	1.89954e+00	0.00000e+00	0.00000e+00	4.29379e+00	0.00000e+00	1.78958e+00	0.00000e+00	1.44121e+00
