P (MPa)		T (K)		r (km)		rho (kg m-3)	VP (km s-1)	VS (km s-1)	QS/gamma	k for 0.01 mol/kg MgSO4 (S m-1)	
0.00000e+00	1.10000e+02	2.41030e+03	9.31948e+02	3.87940e+00	1.96225e+00	1.84014e+04	0.00000e+00
1.28459e+00	1.23824e+02	2.40933e+03	9.31948e+02	3.88144e+00	1.96348e+00	5.76249e+03	0.00000e+00
2.56918e+00	1.39385e+02	2.40853e+03	9.32052e+02	3.88390e+00	1.96493e+00	2.05430e+03	0.00000e+00
3.85377e+00	1.56901e+02	2.40772e+03	9.32154e+02	3.88697e+00	1.96668e+00	8.21722e+02	0.00000e+00
5.13836e+00	1.76619e+02	2.40691e+03	9.32256e+02	3.89086e+00	1.96885e+00	3.64093e+02	0.00000e+00
6.42295e+00	1.98814e+02	2.40610e+03	9.32356e+02	3.89589e+00	1.97160e+00	1.76671e+02	0.00000e+00
7.70754e+00	2.23799e+02	2.40529e+03	9.32456e+02	3.90235e+00	1.97507e+00	9.29352e+01	0.00000e+00
8.99213e+00	2.51924e+02	2.40448e+03	9.32555e+02	3.91046e+00	1.97937e+00	5.25219e+01	0.00000e+00
1.02767e+01	2.51942e+02	2.40368e+03	9.32653e+02	3.91125e+00	1.97997e+00	5.25052e+01	0.00000e+00
1.15613e+01	2.51960e+02	2.40287e+03	9.32750e+02	3.91204e+00	1.98057e+00	5.24884e+01	0.00000e+00
1.28459e+01	2.51978e+02	2.40206e+03	9.32846e+02	3.91283e+00	1.98117e+00	5.24714e+01	0.00000e+00
1.41305e+01	2.51996e+02	2.40125e+03	9.32941e+02	3.91362e+00	1.98177e+00	5.24544e+01	0.00000e+00
1.54151e+01	2.52014e+02	2.40045e+03	9.33035e+02	3.91440e+00	1.98237e+00	5.24371e+01	0.00000e+00
1.66997e+01	2.52032e+02	2.39964e+03	9.33128e+02	3.91518e+00	1.98296e+00	5.24198e+01	0.00000e+00
1.79843e+01	2.52051e+02	2.39884e+03	9.33219e+02	3.91596e+00	1.98356e+00	5.24023e+01	0.00000e+00
1.92688e+01	2.52069e+02	2.39803e+03	9.33310e+02	3.91674e+00	1.98415e+00	5.23847e+01	0.00000e+00
2.05534e+01	2.52088e+02	2.39723e+03	9.33399e+02	3.91752e+00	1.98474e+00	5.23669e+01	0.00000e+00
2.18380e+01	2.52107e+02	2.39642e+03	9.33487e+02	3.91829e+00	1.98533e+00	5.23489e+01	0.00000e+00
2.31226e+01	2.52126e+02	2.39562e+03	9.33574e+02	3.91906e+00	1.98592e+00	5.23309e+01	0.00000e+00
2.44072e+01	2.52146e+02	2.39481e+03	9.33659e+02	3.91983e+00	1.98651e+00	5.23127e+01	0.00000e+00
2.56918e+01	2.52165e+02	2.39401e+03	9.33743e+02	3.92060e+00	1.98710e+00	5.22943e+01	0.00000e+00
2.69764e+01	2.52185e+02	2.39321e+03	9.33826e+02	3.92137e+00	1.98769e+00	5.22758e+01	0.00000e+00
2.82610e+01	2.52205e+02	2.39240e+03	9.33907e+02	3.92213e+00	1.98827e+00	5.22571e+01	0.00000e+00
2.95456e+01	2.52225e+02	2.39160e+03	9.33987e+02	3.92290e+00	1.98885e+00	5.22383e+01	0.00000e+00
3.08302e+01	2.52245e+02	2.39080e+03	9.34065e+02	3.92366e+00	1.98944e+00	5.22194e+01	0.00000e+00
3.21147e+01	2.52265e+02	2.39000e+03	9.34141e+02	3.92441e+00	1.99002e+00	5.22002e+01	0.00000e+00
3.33993e+01	2.52286e+02	2.38920e+03	9.34216e+02	3.92517e+00	1.99060e+00	5.21810e+01	0.00000e+00
3.46839e+01	2.52307e+02	2.38839e+03	9.34290e+02	3.92593e+00	1.99118e+00	5.21616e+01	0.00000e+00
3.59685e+01	2.52328e+02	2.38759e+03	9.34361e+02	3.92668e+00	1.99176e+00	5.21420e+01	0.00000e+00
3.72531e+01	2.52349e+02	2.38679e+03	9.34431e+02	3.92743e+00	1.99234e+00	5.21222e+01	0.00000e+00
3.85377e+01	2.52370e+02	2.38599e+03	9.34500e+02	3.92818e+00	1.99291e+00	5.21023e+01	0.00000e+00
3.98223e+01	2.52391e+02	2.38519e+03	9.34566e+02	3.92893e+00	1.99349e+00	5.20823e+01	0.00000e+00
4.11069e+01	2.52413e+02	2.38439e+03	9.34630e+02	3.92968e+00	1.99406e+00	5.20621e+01	0.00000e+00
4.23915e+01	2.52435e+02	2.38359e+03	9.34693e+02	3.93042e+00	1.99464e+00	5.20417e+01	0.00000e+00
4.36761e+01	2.52457e+02	2.38279e+03	9.34753e+02	3.93116e+00	1.99521e+00	5.20212e+01	0.00000e+00
4.49606e+01	2.52479e+02	2.38199e+03	9.34812e+02	3.93190e+00	1.99578e+00	5.20005e+01	0.00000e+00
4.62452e+01	2.52501e+02	2.38119e+03	9.34868e+02	3.93264e+00	1.99635e+00	5.19796e+01	0.00000e+00
4.75298e+01	2.52524e+02	2.38040e+03	9.34922e+02	3.93338e+00	1.99692e+00	5.19585e+01	0.00000e+00
4.88144e+01	2.52547e+02	2.37960e+03	9.34974e+02	3.93412e+00	1.99749e+00	5.19373e+01	0.00000e+00
5.00990e+01	2.52570e+02	2.37880e+03	9.35024e+02	3.93485e+00	1.99806e+00	5.19160e+01	0.00000e+00
5.13836e+01	2.52593e+02	2.37800e+03	9.35072e+02	3.93559e+00	1.99863e+00	5.18944e+01	0.00000e+00
5.26682e+01	2.52616e+02	2.37720e+03	9.35117e+02	3.93632e+00	1.99919e+00	5.18727e+01	0.00000e+00
5.39528e+01	2.52640e+02	2.37641e+03	9.35160e+02	3.93705e+00	1.99976e+00	5.18508e+01	0.00000e+00
5.52374e+01	2.52663e+02	2.37561e+03	9.35200e+02	3.93778e+00	2.00032e+00	5.18287e+01	0.00000e+00
5.65220e+01	2.52687e+02	2.37481e+03	9.35238e+02	3.93850e+00	2.00088e+00	5.18065e+01	0.00000e+00
5.78065e+01	2.52711e+02	2.37402e+03	9.35273e+02	3.93923e+00	2.00145e+00	5.17841e+01	0.00000e+00
5.90911e+01	2.52736e+02	2.37322e+03	9.35306e+02	3.93995e+00	2.00201e+00	5.17615e+01	0.00000e+00
6.03757e+01	2.52760e+02	2.37243e+03	9.35335e+02	3.94068e+00	2.00257e+00	5.17387e+01	0.00000e+00
6.16603e+01	2.52785e+02	2.37163e+03	9.35362e+02	3.94140e+00	2.00313e+00	5.17158e+01	0.00000e+00
6.29449e+01	2.52810e+02	2.37084e+03	9.35387e+02	3.94212e+00	2.00369e+00	5.16926e+01	0.00000e+00
6.42295e+01	2.52835e+02	2.37004e+03	9.35408e+02	3.94283e+00	2.00424e+00	5.16693e+01	0.00000e+00
6.55141e+01	2.52861e+02	2.36925e+03	9.35426e+02	3.94355e+00	2.00480e+00	5.16458e+01	0.00000e+00
6.67987e+01	2.52887e+02	2.36845e+03	9.35442e+02	3.94427e+00	2.00536e+00	5.16221e+01	0.00000e+00
6.80833e+01	2.52912e+02	2.36766e+03	9.35454e+02	3.94498e+00	2.00591e+00	5.15982e+01	0.00000e+00
6.93679e+01	2.52938e+02	2.36687e+03	9.35463e+02	3.94569e+00	2.00647e+00	5.15742e+01	0.00000e+00
7.06524e+01	2.52965e+02	2.36607e+03	9.35469e+02	3.94640e+00	2.00702e+00	5.15499e+01	0.00000e+00
7.19370e+01	2.52991e+02	2.36528e+03	9.35471e+02	3.94711e+00	2.00757e+00	5.15254e+01	0.00000e+00
7.32216e+01	2.53018e+02	2.36449e+03	9.35470e+02	3.94782e+00	2.00813e+00	5.15008e+01	0.00000e+00
7.45062e+01	2.53045e+02	2.36369e+03	9.35466e+02	3.94853e+00	2.00868e+00	5.14760e+01	0.00000e+00
7.57908e+01	2.53072e+02	2.36290e+03	9.35459e+02	3.94924e+00	2.00923e+00	5.14509e+01	0.00000e+00
7.70754e+01	2.53100e+02	2.36211e+03	9.35447e+02	3.94994e+00	2.00978e+00	5.14257e+01	0.00000e+00
7.83600e+01	2.53127e+02	2.36132e+03	9.35432e+02	3.95065e+00	2.01033e+00	5.14003e+01	0.00000e+00
7.96446e+01	2.53155e+02	2.36052e+03	9.35414e+02	3.95135e+00	2.01088e+00	5.13746e+01	0.00000e+00
8.09292e+01	2.53184e+02	2.35973e+03	9.35391e+02	3.95205e+00	2.01142e+00	5.13488e+01	0.00000e+00
8.22138e+01	2.53212e+02	2.35894e+03	9.35365e+02	3.95275e+00	2.01197e+00	5.13228e+01	0.00000e+00
8.34983e+01	2.53241e+02	2.35815e+03	9.35335e+02	3.95345e+00	2.01252e+00	5.12965e+01	0.00000e+00
8.47829e+01	2.53270e+02	2.35736e+03	9.35301e+02	3.95414e+00	2.01306e+00	5.12701e+01	0.00000e+00
8.60675e+01	2.53299e+02	2.35657e+03	9.35263e+02	3.95484e+00	2.01361e+00	5.12434e+01	0.00000e+00
8.73521e+01	2.53328e+02	2.35578e+03	9.35221e+02	3.95554e+00	2.01415e+00	5.12166e+01	0.00000e+00
8.86367e+01	2.53358e+02	2.35499e+03	9.35175e+02	3.95623e+00	2.01469e+00	5.11895e+01	0.00000e+00
8.99213e+01	2.53388e+02	2.35420e+03	9.35124e+02	3.95692e+00	2.01524e+00	5.11622e+01	0.00000e+00
9.12059e+01	2.53418e+02	2.35341e+03	9.35070e+02	3.95761e+00	2.01578e+00	5.11347e+01	0.00000e+00
9.24905e+01	2.53448e+02	2.35262e+03	9.35011e+02	3.95830e+00	2.01632e+00	5.11070e+01	0.00000e+00
9.37751e+01	2.53479e+02	2.35183e+03	9.34947e+02	3.95899e+00	2.01686e+00	5.10791e+01	0.00000e+00
9.50597e+01	2.53510e+02	2.35104e+03	9.34879e+02	3.95968e+00	2.01740e+00	5.10510e+01	0.00000e+00
9.63442e+01	2.53541e+02	2.35025e+03	9.34807e+02	3.96037e+00	2.01794e+00	5.10226e+01	0.00000e+00
9.76288e+01	2.53573e+02	2.34946e+03	9.34730e+02	3.96105e+00	2.01848e+00	5.09940e+01	0.00000e+00
9.89134e+01	2.53604e+02	2.34867e+03	9.34649e+02	3.96174e+00	2.01901e+00	5.09652e+01	0.00000e+00
1.00198e+02	2.53637e+02	2.34788e+03	9.34563e+02	3.96242e+00	2.01955e+00	5.09362e+01	0.00000e+00
1.01483e+02	2.53669e+02	2.34710e+03	9.34472e+02	3.96311e+00	2.02009e+00	5.09069e+01	0.00000e+00
1.02767e+02	2.53701e+02	2.34631e+03	9.34377e+02	3.96379e+00	2.02062e+00	5.08774e+01	0.00000e+00
1.04052e+02	2.53734e+02	2.34552e+03	9.34277e+02	3.96447e+00	2.02116e+00	5.08477e+01	0.00000e+00
1.05336e+02	2.53767e+02	2.34473e+03	9.34172e+02	3.96515e+00	2.02169e+00	5.08178e+01	0.00000e+00
1.06621e+02	2.53801e+02	2.34394e+03	9.34063e+02	3.96583e+00	2.02223e+00	5.07876e+01	0.00000e+00
1.07906e+02	2.53835e+02	2.34316e+03	9.33948e+02	3.96651e+00	2.02276e+00	5.07572e+01	0.00000e+00
1.09190e+02	2.53869e+02	2.34237e+03	9.33829e+02	3.96718e+00	2.02329e+00	5.07266e+01	0.00000e+00
1.10475e+02	2.53903e+02	2.34158e+03	9.33706e+02	3.96786e+00	2.02382e+00	5.06957e+01	0.00000e+00
1.11759e+02	2.53938e+02	2.34080e+03	9.33577e+02	3.96853e+00	2.02436e+00	5.06646e+01	0.00000e+00
1.13044e+02	2.53972e+02	2.34001e+03	9.33444e+02	3.96921e+00	2.02489e+00	5.06332e+01	0.00000e+00
1.14329e+02	2.54008e+02	2.33922e+03	9.33306e+02	3.96988e+00	2.02542e+00	5.06016e+01	0.00000e+00
1.15613e+02	2.54043e+02	2.33844e+03	9.33163e+02	3.97055e+00	2.02595e+00	5.05698e+01	0.00000e+00
1.16898e+02	2.54079e+02	2.33765e+03	9.33016e+02	3.97122e+00	2.02648e+00	5.05377e+01	0.00000e+00
1.18182e+02	2.54115e+02	2.33686e+03	9.32864e+02	3.97189e+00	2.02701e+00	5.05053e+01	0.00000e+00
1.19467e+02	2.54151e+02	2.33608e+03	9.32707e+02	3.97256e+00	2.02753e+00	5.04728e+01	0.00000e+00
1.20751e+02	2.54188e+02	2.33529e+03	9.32546e+02	3.97323e+00	2.02806e+00	5.04399e+01	0.00000e+00
1.22036e+02	2.54225e+02	2.33450e+03	9.32381e+02	3.97390e+00	2.02859e+00	5.04069e+01	0.00000e+00
1.23321e+02	2.54263e+02	2.33372e+03	9.32211e+02	3.97457e+00	2.02911e+00	5.03735e+01	0.00000e+00
1.24605e+02	2.54300e+02	2.33293e+03	9.32037e+02	3.97523e+00	2.02964e+00	5.03399e+01	0.00000e+00
1.25890e+02	2.59942e+02	2.33215e+03	9.31858e+02	3.97746e+00	2.03097e+00	4.56574e+01	0.00000e+00
1.27174e+02	2.60000e+02	2.33136e+03	9.31676e+02	3.97813e+00	2.03149e+00	4.56125e+01	0.00000e+00
1.29114e+02	2.60014e+02	2.33041e+03	1.15818e+03	1.73859e+00	0.00000e+00	0.00000e+00	4.74722e-02
1.31054e+02	2.60029e+02	2.32945e+03	1.15882e+03	1.74213e+00	0.00000e+00	0.00000e+00	4.75511e-02
1.32993e+02	2.60044e+02	2.32850e+03	1.15945e+03	1.74566e+00	0.00000e+00	0.00000e+00	4.76300e-02
1.34933e+02	2.60059e+02	2.32755e+03	1.16009e+03	1.74917e+00	0.00000e+00	0.00000e+00	4.77088e-02
1.36872e+02	2.60074e+02	2.32660e+03	1.16072e+03	1.75267e+00	0.00000e+00	0.00000e+00	4.77876e-02
1.38812e+02	2.60090e+02	2.32565e+03	1.16135e+03	1.75616e+00	0.00000e+00	0.00000e+00	4.78665e-02
1.40752e+02	2.60106e+02	2.32470e+03	1.16198e+03	1.75963e+00	0.00000e+00	0.00000e+00	4.79453e-02
1.42691e+02	2.60122e+02	2.32375e+03	1.16261e+03	1.76309e+00	0.00000e+00	0.00000e+00	4.80240e-02
1.44631e+02	2.60138e+02	2.32280e+03	1.16323e+03	1.76653e+00	0.00000e+00	0.00000e+00	4.81028e-02
1.46571e+02	2.60155e+02	2.32186e+03	1.16385e+03	1.76996e+00	0.00000e+00	0.00000e+00	4.81816e-02
1.48510e+02	2.60172e+02	2.32091e+03	1.16447e+03	1.77338e+00	0.00000e+00	0.00000e+00	4.82603e-02
1.50450e+02	2.60189e+02	2.31997e+03	1.16508e+03	1.77678e+00	0.00000e+00	0.00000e+00	4.83390e-02
1.52389e+02	2.60206e+02	2.31902e+03	1.16570e+03	1.78017e+00	0.00000e+00	0.00000e+00	4.84178e-02
1.54329e+02	2.60223e+02	2.31808e+03	1.16631e+03	1.78354e+00	0.00000e+00	0.00000e+00	4.84965e-02
1.56269e+02	2.60241e+02	2.31713e+03	1.16691e+03	1.78690e+00	0.00000e+00	0.00000e+00	4.85752e-02
1.58208e+02	2.60259e+02	2.31619e+03	1.16752e+03	1.79025e+00	0.00000e+00	0.00000e+00	4.86539e-02
1.60148e+02	2.60277e+02	2.31525e+03	1.16813e+03	1.79359e+00	0.00000e+00	0.00000e+00	4.87326e-02
1.62087e+02	2.60295e+02	2.31431e+03	1.16873e+03	1.79691e+00	0.00000e+00	0.00000e+00	4.88113e-02
1.64027e+02	2.60314e+02	2.31337e+03	1.16933e+03	1.80021e+00	0.00000e+00	0.00000e+00	4.88901e-02
1.65967e+02	2.60332e+02	2.31243e+03	1.16992e+03	1.80351e+00	0.00000e+00	0.00000e+00	4.89688e-02
1.67906e+02	2.60351e+02	2.31149e+03	1.17052e+03	1.80679e+00	0.00000e+00	0.00000e+00	4.90475e-02
1.69846e+02	2.60370e+02	2.31055e+03	1.17111e+03	1.81006e+00	0.00000e+00	0.00000e+00	4.91262e-02
1.71785e+02	2.60390e+02	2.30962e+03	1.17170e+03	1.81332e+00	0.00000e+00	0.00000e+00	4.92050e-02
1.73725e+02	2.60409e+02	2.30868e+03	1.17229e+03	1.81656e+00	0.00000e+00	0.00000e+00	4.92837e-02
1.75665e+02	2.60429e+02	2.30774e+03	1.17288e+03	1.81980e+00	0.00000e+00	0.00000e+00	4.93625e-02
1.77604e+02	2.60449e+02	2.30681e+03	1.17346e+03	1.82302e+00	0.00000e+00	0.00000e+00	4.94413e-02
1.79544e+02	2.60469e+02	2.30588e+03	1.17405e+03	1.82623e+00	0.00000e+00	0.00000e+00	4.95202e-02
1.81484e+02	2.60489e+02	2.30494e+03	1.17463e+03	1.82943e+00	0.00000e+00	0.00000e+00	4.95990e-02
1.83423e+02	2.60509e+02	2.30401e+03	1.17521e+03	1.83261e+00	0.00000e+00	0.00000e+00	4.96779e-02
1.85363e+02	2.60530e+02	2.30308e+03	1.17578e+03	1.83579e+00	0.00000e+00	0.00000e+00	4.97568e-02
1.87302e+02	2.60551e+02	2.30215e+03	1.17636e+03	1.83895e+00	0.00000e+00	0.00000e+00	4.98358e-02
1.89242e+02	2.60572e+02	2.30122e+03	1.17693e+03	1.84211e+00	0.00000e+00	0.00000e+00	4.99148e-02
1.91182e+02	2.60593e+02	2.30029e+03	1.17750e+03	1.84525e+00	0.00000e+00	0.00000e+00	4.99938e-02
1.93121e+02	2.60614e+02	2.29936e+03	1.17807e+03	1.84838e+00	0.00000e+00	0.00000e+00	5.00729e-02
1.95061e+02	2.60636e+02	2.29843e+03	1.17864e+03	1.85151e+00	0.00000e+00	0.00000e+00	5.01520e-02
1.97000e+02	2.60657e+02	2.29750e+03	1.17920e+03	1.85462e+00	0.00000e+00	0.00000e+00	5.02312e-02
1.98940e+02	2.60679e+02	2.29658e+03	1.17976e+03	1.85772e+00	0.00000e+00	0.00000e+00	5.03105e-02
2.00880e+02	2.60701e+02	2.29565e+03	1.18032e+03	1.86082e+00	0.00000e+00	0.00000e+00	5.03898e-02
2.02819e+02	2.60723e+02	2.29472e+03	1.18088e+03	1.86391e+00	0.00000e+00	0.00000e+00	5.04691e-02
2.04759e+02	2.60745e+02	2.29380e+03	1.18144e+03	1.86698e+00	0.00000e+00	0.00000e+00	5.05486e-02
2.06699e+02	2.60768e+02	2.29288e+03	1.18200e+03	1.87005e+00	0.00000e+00	0.00000e+00	5.06280e-02
2.08638e+02	2.60790e+02	2.29195e+03	1.18255e+03	1.87311e+00	0.00000e+00	0.00000e+00	5.07076e-02
2.10578e+02	2.60813e+02	2.29103e+03	1.18310e+03	1.87616e+00	0.00000e+00	0.00000e+00	5.07871e-02
2.12517e+02	2.60836e+02	2.29011e+03	1.18365e+03	1.87921e+00	0.00000e+00	0.00000e+00	5.08667e-02
2.14457e+02	2.60859e+02	2.28919e+03	1.18420e+03	1.88224e+00	0.00000e+00	0.00000e+00	5.09464e-02
2.16397e+02	2.60882e+02	2.28827e+03	1.18475e+03	1.88527e+00	0.00000e+00	0.00000e+00	5.10260e-02
2.18336e+02	2.60905e+02	2.28735e+03	1.18529e+03	1.88829e+00	0.00000e+00	0.00000e+00	5.11057e-02
2.20276e+02	2.60929e+02	2.28643e+03	1.18583e+03	1.89130e+00	0.00000e+00	0.00000e+00	5.11854e-02
2.22215e+02	2.60952e+02	2.28551e+03	1.18638e+03	1.89430e+00	0.00000e+00	0.00000e+00	5.12651e-02
2.24155e+02	2.60976e+02	2.28459e+03	1.18692e+03	1.89730e+00	0.00000e+00	0.00000e+00	5.13448e-02
2.26095e+02	2.61000e+02	2.28367e+03	1.18745e+03	1.90029e+00	0.00000e+00	0.00000e+00	5.14245e-02
2.28034e+02	2.61023e+02	2.28276e+03	1.18799e+03	1.90327e+00	0.00000e+00	0.00000e+00	5.15042e-02
2.29974e+02	2.61048e+02	2.28184e+03	1.18852e+03	1.90624e+00	0.00000e+00	0.00000e+00	5.15839e-02
2.31913e+02	2.61072e+02	2.28093e+03	1.18906e+03	1.90921e+00	0.00000e+00	0.00000e+00	5.16636e-02
2.33853e+02	2.61096e+02	2.28001e+03	1.18959e+03	1.91216e+00	0.00000e+00	0.00000e+00	5.17433e-02
2.35793e+02	2.61121e+02	2.27910e+03	1.19012e+03	1.91511e+00	0.00000e+00	0.00000e+00	5.18230e-02
2.37732e+02	2.61145e+02	2.27819e+03	1.19065e+03	1.91805e+00	0.00000e+00	0.00000e+00	5.19026e-02
2.39672e+02	2.61170e+02	2.27727e+03	1.19117e+03	1.92099e+00	0.00000e+00	0.00000e+00	5.19823e-02
2.41612e+02	2.61195e+02	2.27636e+03	1.19170e+03	1.92391e+00	0.00000e+00	0.00000e+00	5.20619e-02
2.43551e+02	2.61220e+02	2.27545e+03	1.19222e+03	1.92682e+00	0.00000e+00	0.00000e+00	5.21414e-02
2.45491e+02	2.61245e+02	2.27454e+03	1.19274e+03	1.92973e+00	0.00000e+00	0.00000e+00	5.22210e-02
2.47430e+02	2.61270e+02	2.27363e+03	1.19326e+03	1.93262e+00	0.00000e+00	0.00000e+00	5.23005e-02
2.49370e+02	2.61295e+02	2.27272e+03	1.19378e+03	1.93551e+00	0.00000e+00	0.00000e+00	5.23799e-02
2.51310e+02	2.61320e+02	2.27181e+03	1.19430e+03	1.93838e+00	0.00000e+00	0.00000e+00	5.24594e-02
2.53249e+02	2.61346e+02	2.27090e+03	1.19481e+03	1.94124e+00	0.00000e+00	0.00000e+00	5.25387e-02
2.55189e+02	2.61372e+02	2.27000e+03	1.19533e+03	1.94409e+00	0.00000e+00	0.00000e+00	5.26181e-02
2.57128e+02	2.61397e+02	2.26909e+03	1.19584e+03	1.94692e+00	0.00000e+00	0.00000e+00	5.26974e-02
2.59068e+02	2.61423e+02	2.26819e+03	1.19635e+03	1.94975e+00	0.00000e+00	0.00000e+00	5.27766e-02
2.61008e+02	2.61449e+02	2.26728e+03	1.19686e+03	1.95256e+00	0.00000e+00	0.00000e+00	5.28558e-02
2.62947e+02	2.61475e+02	2.26638e+03	1.19737e+03	1.95535e+00	0.00000e+00	0.00000e+00	5.29349e-02
2.64887e+02	2.61501e+02	2.26547e+03	1.19787e+03	1.95813e+00	0.00000e+00	0.00000e+00	5.30140e-02
2.66826e+02	2.61527e+02	2.26457e+03	1.19838e+03	1.96090e+00	0.00000e+00	0.00000e+00	5.30930e-02
2.68766e+02	2.61554e+02	2.26367e+03	1.19888e+03	1.96365e+00	0.00000e+00	0.00000e+00	5.31719e-02
2.70706e+02	2.61580e+02	2.26276e+03	1.19939e+03	1.96639e+00	0.00000e+00	0.00000e+00	5.32508e-02
2.72645e+02	2.61607e+02	2.26186e+03	1.19989e+03	1.96911e+00	0.00000e+00	0.00000e+00	5.33297e-02
2.74585e+02	2.61633e+02	2.26096e+03	1.20039e+03	1.97182e+00	0.00000e+00	0.00000e+00	5.34084e-02
2.76525e+02	2.61660e+02	2.26006e+03	1.20088e+03	1.97452e+00	0.00000e+00	0.00000e+00	5.34872e-02
2.78464e+02	2.61687e+02	2.25916e+03	1.20138e+03	1.97721e+00	0.00000e+00	0.00000e+00	5.35658e-02
2.80404e+02	2.61714e+02	2.25826e+03	1.20188e+03	1.97988e+00	0.00000e+00	0.00000e+00	5.36444e-02
2.82343e+02	2.61741e+02	2.25737e+03	1.20237e+03	1.98255e+00	0.00000e+00	0.00000e+00	5.37229e-02
2.84283e+02	2.61768e+02	2.25647e+03	1.20286e+03	1.98520e+00	0.00000e+00	0.00000e+00	5.38013e-02
2.86223e+02	2.61795e+02	2.25557e+03	1.20335e+03	1.98784e+00	0.00000e+00	0.00000e+00	5.38797e-02
2.88162e+02	2.61823e+02	2.25468e+03	1.20384e+03	1.99048e+00	0.00000e+00	0.00000e+00	5.39581e-02
2.90102e+02	2.61850e+02	2.25378e+03	1.20433e+03	1.99310e+00	0.00000e+00	0.00000e+00	5.40363e-02
2.92041e+02	2.61877e+02	2.25288e+03	1.20482e+03	1.99572e+00	0.00000e+00	0.00000e+00	5.41145e-02
2.93981e+02	2.61905e+02	2.25199e+03	1.20531e+03	1.99833e+00	0.00000e+00	0.00000e+00	5.41926e-02
2.95921e+02	2.61933e+02	2.25110e+03	1.20579e+03	2.00093e+00	0.00000e+00	0.00000e+00	5.42707e-02
2.97860e+02	2.61961e+02	2.25020e+03	1.20628e+03	2.00352e+00	0.00000e+00	0.00000e+00	5.43487e-02
2.99800e+02	2.61988e+02	2.24931e+03	1.20676e+03	2.00611e+00	0.00000e+00	0.00000e+00	5.44266e-02
3.01740e+02	2.62016e+02	2.24842e+03	1.20724e+03	2.00869e+00	0.00000e+00	0.00000e+00	5.45045e-02
3.03679e+02	2.62044e+02	2.24753e+03	1.20772e+03	2.01126e+00	0.00000e+00	0.00000e+00	5.45823e-02
3.05619e+02	2.62073e+02	2.24664e+03	1.20820e+03	2.01383e+00	0.00000e+00	0.00000e+00	5.46600e-02
3.07558e+02	2.62101e+02	2.24575e+03	1.20868e+03	2.01639e+00	0.00000e+00	0.00000e+00	5.47377e-02
3.09498e+02	2.62129e+02	2.24486e+03	1.20915e+03	2.01895e+00	0.00000e+00	0.00000e+00	5.48153e-02
3.11438e+02	2.62157e+02	2.24397e+03	1.20963e+03	2.02150e+00	0.00000e+00	0.00000e+00	5.48928e-02
3.13377e+02	2.62186e+02	2.24308e+03	1.21010e+03	2.02404e+00	0.00000e+00	0.00000e+00	5.49702e-02
3.15317e+02	2.62215e+02	2.24219e+03	1.21057e+03	2.02659e+00	0.00000e+00	0.00000e+00	5.50476e-02
3.17256e+02	2.62243e+02	2.24131e+03	1.21105e+03	2.02912e+00	0.00000e+00	0.00000e+00	5.51248e-02
3.19196e+02	2.62272e+02	2.24042e+03	1.21152e+03	2.03165e+00	0.00000e+00	0.00000e+00	5.52020e-02
3.21136e+02	2.62301e+02	2.23953e+03	1.21198e+03	2.03418e+00	0.00000e+00	0.00000e+00	5.52791e-02
3.23075e+02	2.62330e+02	2.23865e+03	1.21245e+03	2.03670e+00	0.00000e+00	0.00000e+00	5.53560e-02
3.25015e+02	2.62359e+02	2.23776e+03	1.21292e+03	2.03922e+00	0.00000e+00	0.00000e+00	5.54329e-02
3.26954e+02	2.62388e+02	2.23688e+03	1.21339e+03	2.04174e+00	0.00000e+00	0.00000e+00	5.55096e-02
3.28894e+02	2.62417e+02	2.23600e+03	1.21385e+03	2.04425e+00	0.00000e+00	0.00000e+00	5.55862e-02
3.30834e+02	2.62446e+02	2.23511e+03	1.21431e+03	2.04676e+00	0.00000e+00	0.00000e+00	5.56627e-02
3.32773e+02	2.62476e+02	2.23423e+03	1.21478e+03	2.04927e+00	0.00000e+00	0.00000e+00	5.57391e-02
3.34713e+02	2.62505e+02	2.23335e+03	1.21524e+03	2.05177e+00	0.00000e+00	0.00000e+00	5.58154e-02
