P (MPa)		T (K)		r (km)		rho (kg m-3)	VP (km s-1)	VS (km s-1)	QS/gamma	KS (GPa)	GS (GPa)	g (m/s2)	phase	k (S m-1)	
0.00000e+00	1.10000e+02	1.56100e+03	9.32718e+02	3.87940e+00	1.96225e+00	4.56125e+01	9.24000e+00	3.58800e+00	1.31424e+00	1.00000e+00	0.00000e+00
1.89153e-01	1.10912e+02	1.56085e+03	9.32718e+02	3.87959e+00	1.96238e+00	4.56125e+01	9.24062e+00	3.58841e+00	1.31438e+00	1.00000e+00	0.00000e+00
3.78306e-01	1.11831e+02	1.56069e+03	9.32717e+02	3.87978e+00	1.96251e+00	4.56125e+01	9.24125e+00	3.58881e+00	1.31452e+00	1.00000e+00	0.00000e+00
5.67458e-01	1.12759e+02	1.56054e+03	9.32715e+02	3.87998e+00	1.96263e+00	4.56125e+01	9.24187e+00	3.58922e+00	1.31466e+00	1.00000e+00	0.00000e+00
7.56611e-01	1.13693e+02	1.56038e+03	9.32713e+02	3.88018e+00	1.96276e+00	4.56125e+01	9.24250e+00	3.58962e+00	1.31480e+00	1.00000e+00	0.00000e+00
9.45764e-01	1.14636e+02	1.56023e+03	9.32711e+02	3.88038e+00	1.96289e+00	4.56125e+01	9.24312e+00	3.59003e+00	1.31494e+00	1.00000e+00	0.00000e+00
1.13492e+00	1.15586e+02	1.56007e+03	9.32709e+02	3.88058e+00	1.96303e+00	4.56125e+01	9.24374e+00	3.59044e+00	1.31508e+00	1.00000e+00	0.00000e+00
1.32407e+00	1.16544e+02	1.55992e+03	9.32707e+02	3.88078e+00	1.96316e+00	4.56125e+01	9.24436e+00	3.59084e+00	1.31522e+00	1.00000e+00	0.00000e+00
1.51322e+00	1.17511e+02	1.55977e+03	9.32704e+02	3.88099e+00	1.96329e+00	4.56125e+01	9.24499e+00	3.59125e+00	1.31536e+00	1.00000e+00	0.00000e+00
1.70238e+00	1.18485e+02	1.55961e+03	9.32701e+02	3.88119e+00	1.96342e+00	4.56125e+01	9.24561e+00	3.59165e+00	1.31550e+00	1.00000e+00	0.00000e+00
1.89153e+00	1.19467e+02	1.55946e+03	9.32697e+02	3.88140e+00	1.96356e+00	4.56125e+01	9.24623e+00	3.59206e+00	1.31563e+00	1.00000e+00	0.00000e+00
2.08068e+00	1.20458e+02	1.55930e+03	9.32693e+02	3.88161e+00	1.96369e+00	4.56125e+01	9.24685e+00	3.59246e+00	1.31577e+00	1.00000e+00	0.00000e+00
2.26983e+00	1.21456e+02	1.55915e+03	9.32689e+02	3.88182e+00	1.96383e+00	4.56125e+01	9.24748e+00	3.59287e+00	1.31591e+00	1.00000e+00	0.00000e+00
2.45899e+00	1.22463e+02	1.55900e+03	9.32685e+02	3.88203e+00	1.96397e+00	4.56125e+01	9.24810e+00	3.59328e+00	1.31605e+00	1.00000e+00	0.00000e+00
2.64814e+00	1.23478e+02	1.55884e+03	9.32680e+02	3.88225e+00	1.96411e+00	4.56125e+01	9.24872e+00	3.59368e+00	1.31619e+00	1.00000e+00	0.00000e+00
2.83729e+00	1.24502e+02	1.55869e+03	9.32675e+02	3.88247e+00	1.96425e+00	4.56125e+01	9.24934e+00	3.59409e+00	1.31633e+00	1.00000e+00	0.00000e+00
3.02645e+00	1.25534e+02	1.55853e+03	9.32670e+02	3.88269e+00	1.96439e+00	4.56125e+01	9.24996e+00	3.59449e+00	1.31647e+00	1.00000e+00	0.00000e+00
3.21560e+00	1.26575e+02	1.55838e+03	9.32664e+02	3.88291e+00	1.96453e+00	4.56125e+01	9.25058e+00	3.59490e+00	1.31661e+00	1.00000e+00	0.00000e+00
3.40475e+00	1.27624e+02	1.55822e+03	9.32658e+02	3.88313e+00	1.96467e+00	4.56125e+01	9.25121e+00	3.59530e+00	1.31675e+00	1.00000e+00	0.00000e+00
3.59390e+00	1.28682e+02	1.55807e+03	9.32652e+02	3.88336e+00	1.96481e+00	4.56125e+01	9.25183e+00	3.59571e+00	1.31689e+00	1.00000e+00	0.00000e+00
3.78306e+00	1.29749e+02	1.55792e+03	9.32645e+02	3.88358e+00	1.96496e+00	4.56125e+01	9.25245e+00	3.59611e+00	1.31703e+00	1.00000e+00	0.00000e+00
3.97221e+00	1.30825e+02	1.55776e+03	9.32638e+02	3.88381e+00	1.96510e+00	4.56125e+01	9.25307e+00	3.59652e+00	1.31717e+00	1.00000e+00	0.00000e+00
4.16136e+00	1.31909e+02	1.55761e+03	9.32631e+02	3.88405e+00	1.96525e+00	4.56125e+01	9.25369e+00	3.59692e+00	1.31731e+00	1.00000e+00	0.00000e+00
4.35052e+00	1.33003e+02	1.55745e+03	9.32623e+02	3.88428e+00	1.96540e+00	4.56125e+01	9.25431e+00	3.59733e+00	1.31745e+00	1.00000e+00	0.00000e+00
4.53967e+00	1.34105e+02	1.55730e+03	9.32615e+02	3.88452e+00	1.96555e+00	4.56125e+01	9.25493e+00	3.59773e+00	1.31759e+00	1.00000e+00	0.00000e+00
4.72882e+00	1.35217e+02	1.55715e+03	9.32607e+02	3.88476e+00	1.96570e+00	4.56125e+01	9.25555e+00	3.59814e+00	1.31773e+00	1.00000e+00	0.00000e+00
4.91797e+00	1.36338e+02	1.55699e+03	9.32598e+02	3.88500e+00	1.96585e+00	4.56125e+01	9.25617e+00	3.59854e+00	1.31787e+00	1.00000e+00	0.00000e+00
5.10713e+00	1.37469e+02	1.55684e+03	9.32589e+02	3.88525e+00	1.96601e+00	4.56125e+01	9.25679e+00	3.59894e+00	1.31801e+00	1.00000e+00	0.00000e+00
5.29628e+00	1.38608e+02	1.55669e+03	9.32580e+02	3.88550e+00	1.96616e+00	4.56125e+01	9.25740e+00	3.59935e+00	1.31815e+00	1.00000e+00	0.00000e+00
5.48543e+00	1.39757e+02	1.55653e+03	9.32570e+02	3.88575e+00	1.96632e+00	4.56125e+01	9.25802e+00	3.59975e+00	1.31829e+00	1.00000e+00	0.00000e+00
5.67458e+00	1.40916e+02	1.55638e+03	9.32559e+02	3.88600e+00	1.96648e+00	4.56125e+01	9.25864e+00	3.60016e+00	1.31843e+00	1.00000e+00	0.00000e+00
5.86374e+00	1.42084e+02	1.55622e+03	9.32549e+02	3.88626e+00	1.96664e+00	4.56125e+01	9.25926e+00	3.60056e+00	1.31857e+00	1.00000e+00	0.00000e+00
6.05289e+00	1.43262e+02	1.55607e+03	9.32538e+02	3.88652e+00	1.96680e+00	4.56125e+01	9.25988e+00	3.60096e+00	1.31871e+00	1.00000e+00	0.00000e+00
6.24204e+00	1.44450e+02	1.55592e+03	9.32526e+02	3.88678e+00	1.96696e+00	4.56125e+01	9.26050e+00	3.60137e+00	1.31885e+00	1.00000e+00	0.00000e+00
6.43120e+00	1.45647e+02	1.55576e+03	9.32515e+02	3.88705e+00	1.96712e+00	4.56125e+01	9.26112e+00	3.60177e+00	1.31900e+00	1.00000e+00	0.00000e+00
6.62035e+00	1.46855e+02	1.55561e+03	9.32503e+02	3.88732e+00	1.96729e+00	4.56125e+01	9.26173e+00	3.60218e+00	1.31914e+00	1.00000e+00	0.00000e+00
6.80950e+00	1.48072e+02	1.55545e+03	9.32490e+02	3.88759e+00	1.96746e+00	4.56125e+01	9.26235e+00	3.60258e+00	1.31928e+00	1.00000e+00	0.00000e+00
6.99865e+00	1.49300e+02	1.55530e+03	9.32477e+02	3.88786e+00	1.96762e+00	4.56125e+01	9.26297e+00	3.60298e+00	1.31942e+00	1.00000e+00	0.00000e+00
7.18781e+00	1.50537e+02	1.55515e+03	9.32464e+02	3.88814e+00	1.96780e+00	4.56125e+01	9.26359e+00	3.60339e+00	1.31956e+00	1.00000e+00	0.00000e+00
7.37696e+00	1.51785e+02	1.55499e+03	9.32450e+02	3.88843e+00	1.96797e+00	4.56125e+01	9.26420e+00	3.60379e+00	1.31970e+00	1.00000e+00	0.00000e+00
7.56611e+00	1.53044e+02	1.55484e+03	9.32435e+02	3.88871e+00	1.96814e+00	4.56125e+01	9.26482e+00	3.60419e+00	1.31984e+00	1.00000e+00	0.00000e+00
7.75527e+00	1.54313e+02	1.55469e+03	9.32421e+02	3.88900e+00	1.96832e+00	4.56125e+01	9.26544e+00	3.60460e+00	1.31998e+00	1.00000e+00	0.00000e+00
7.94442e+00	1.55592e+02	1.55453e+03	9.32406e+02	3.88930e+00	1.96850e+00	4.56125e+01	9.26605e+00	3.60500e+00	1.32012e+00	1.00000e+00	0.00000e+00
8.13357e+00	1.56882e+02	1.55438e+03	9.32390e+02	3.88960e+00	1.96868e+00	4.56125e+01	9.26667e+00	3.60540e+00	1.32026e+00	1.00000e+00	0.00000e+00
8.32272e+00	1.58182e+02	1.55423e+03	9.32374e+02	3.88990e+00	1.96886e+00	4.56125e+01	9.26728e+00	3.60581e+00	1.32040e+00	1.00000e+00	0.00000e+00
8.51188e+00	1.59494e+02	1.55407e+03	9.32358e+02	3.89020e+00	1.96904e+00	4.56125e+01	9.26790e+00	3.60621e+00	1.32054e+00	1.00000e+00	0.00000e+00
8.70103e+00	1.60816e+02	1.55392e+03	9.32341e+02	3.89051e+00	1.96923e+00	4.56125e+01	9.26852e+00	3.60661e+00	1.32068e+00	1.00000e+00	0.00000e+00
8.89018e+00	1.62149e+02	1.55376e+03	9.32324e+02	3.89083e+00	1.96942e+00	4.56125e+01	9.26913e+00	3.60702e+00	1.32083e+00	1.00000e+00	0.00000e+00
9.07934e+00	1.63493e+02	1.55361e+03	9.32306e+02	3.89115e+00	1.96961e+00	4.56125e+01	9.26975e+00	3.60742e+00	1.32097e+00	1.00000e+00	0.00000e+00
9.26849e+00	1.64849e+02	1.55346e+03	9.32288e+02	3.89147e+00	1.96980e+00	4.56125e+01	9.27036e+00	3.60782e+00	1.32111e+00	1.00000e+00	0.00000e+00
9.45764e+00	1.66216e+02	1.55330e+03	9.32269e+02	3.89180e+00	1.97000e+00	4.56125e+01	9.27098e+00	3.60823e+00	1.32125e+00	1.00000e+00	0.00000e+00
9.64679e+00	1.67594e+02	1.55315e+03	9.32250e+02	3.89213e+00	1.97020e+00	4.56125e+01	9.27159e+00	3.60863e+00	1.32139e+00	1.00000e+00	0.00000e+00
9.83595e+00	1.68983e+02	1.55300e+03	9.32230e+02	3.89247e+00	1.97040e+00	4.56125e+01	9.27221e+00	3.60903e+00	1.32153e+00	1.00000e+00	0.00000e+00
1.00251e+01	1.70384e+02	1.55284e+03	9.32210e+02	3.89281e+00	1.97060e+00	4.56125e+01	9.27282e+00	3.60943e+00	1.32167e+00	1.00000e+00	0.00000e+00
1.02143e+01	1.71796e+02	1.55269e+03	9.32189e+02	3.89316e+00	1.97080e+00	4.56125e+01	9.27344e+00	3.60984e+00	1.32181e+00	1.00000e+00	0.00000e+00
1.04034e+01	1.73221e+02	1.55254e+03	9.32168e+02	3.89351e+00	1.97101e+00	4.56125e+01	9.27405e+00	3.61024e+00	1.32196e+00	1.00000e+00	0.00000e+00
1.05926e+01	1.74657e+02	1.55238e+03	9.32147e+02	3.89387e+00	1.97122e+00	4.56125e+01	9.27466e+00	3.61064e+00	1.32210e+00	1.00000e+00	0.00000e+00
1.07817e+01	1.76105e+02	1.55223e+03	9.32125e+02	3.89423e+00	1.97144e+00	4.56125e+01	9.27528e+00	3.61104e+00	1.32224e+00	1.00000e+00	0.00000e+00
1.09709e+01	1.77565e+02	1.55208e+03	9.32102e+02	3.89460e+00	1.97165e+00	4.56125e+01	9.27589e+00	3.61145e+00	1.32238e+00	1.00000e+00	0.00000e+00
1.11600e+01	1.79037e+02	1.55192e+03	9.32079e+02	3.89497e+00	1.97187e+00	4.56125e+01	9.27650e+00	3.61185e+00	1.32252e+00	1.00000e+00	0.00000e+00
1.13492e+01	1.80521e+02	1.55177e+03	9.32055e+02	3.89535e+00	1.97209e+00	4.56125e+01	9.27712e+00	3.61225e+00	1.32266e+00	1.00000e+00	0.00000e+00
1.15383e+01	1.82017e+02	1.55161e+03	9.32031e+02	3.89574e+00	1.97232e+00	4.56125e+01	9.27773e+00	3.61265e+00	1.32280e+00	1.00000e+00	0.00000e+00
1.17275e+01	1.83526e+02	1.55146e+03	9.32007e+02	3.89613e+00	1.97254e+00	4.56125e+01	9.27834e+00	3.61305e+00	1.32295e+00	1.00000e+00	0.00000e+00
1.19166e+01	1.85048e+02	1.55131e+03	9.31982e+02	3.89653e+00	1.97277e+00	4.56125e+01	9.27896e+00	3.61345e+00	1.32309e+00	1.00000e+00	0.00000e+00
1.21058e+01	1.86582e+02	1.55115e+03	9.31956e+02	3.89693e+00	1.97301e+00	4.56125e+01	9.27957e+00	3.61386e+00	1.32323e+00	1.00000e+00	0.00000e+00
1.22949e+01	1.88129e+02	1.55100e+03	9.31930e+02	3.89734e+00	1.97324e+00	4.56125e+01	9.28018e+00	3.61426e+00	1.32337e+00	1.00000e+00	0.00000e+00
1.24841e+01	1.89688e+02	1.55085e+03	9.31903e+02	3.89775e+00	1.97348e+00	4.56125e+01	9.28079e+00	3.61466e+00	1.32351e+00	1.00000e+00	0.00000e+00
1.26732e+01	1.91261e+02	1.55069e+03	9.31876e+02	3.89818e+00	1.97373e+00	4.56125e+01	9.28140e+00	3.61506e+00	1.32366e+00	1.00000e+00	0.00000e+00
1.28624e+01	1.92847e+02	1.55054e+03	9.31848e+02	3.89861e+00	1.97397e+00	4.56125e+01	9.28202e+00	3.61546e+00	1.32380e+00	1.00000e+00	0.00000e+00
1.30515e+01	1.94445e+02	1.55039e+03	9.31819e+02	3.89904e+00	1.97422e+00	4.56125e+01	9.28263e+00	3.61586e+00	1.32394e+00	1.00000e+00	0.00000e+00
1.32407e+01	1.96057e+02	1.55023e+03	9.31790e+02	3.89948e+00	1.97448e+00	4.56125e+01	9.28324e+00	3.61627e+00	1.32408e+00	1.00000e+00	0.00000e+00
1.34299e+01	1.97683e+02	1.55008e+03	9.31761e+02	3.89993e+00	1.97473e+00	4.56125e+01	9.28385e+00	3.61667e+00	1.32422e+00	1.00000e+00	0.00000e+00
1.36190e+01	1.99322e+02	1.54993e+03	9.31731e+02	3.90039e+00	1.97499e+00	4.56125e+01	9.28446e+00	3.61707e+00	1.32437e+00	1.00000e+00	0.00000e+00
1.38082e+01	2.00974e+02	1.54977e+03	9.31700e+02	3.90085e+00	1.97526e+00	4.56125e+01	9.28507e+00	3.61747e+00	1.32451e+00	1.00000e+00	0.00000e+00
1.39973e+01	2.02640e+02	1.54962e+03	9.31669e+02	3.90132e+00	1.97552e+00	4.56125e+01	9.28568e+00	3.61787e+00	1.32465e+00	1.00000e+00	0.00000e+00
1.41865e+01	2.04320e+02	1.54947e+03	9.31637e+02	3.90180e+00	1.97579e+00	4.56125e+01	9.28629e+00	3.61827e+00	1.32479e+00	1.00000e+00	0.00000e+00
1.43756e+01	2.06014e+02	1.54931e+03	9.31604e+02	3.90228e+00	1.97607e+00	4.56125e+01	9.28690e+00	3.61867e+00	1.32494e+00	1.00000e+00	0.00000e+00
1.45648e+01	2.07722e+02	1.54916e+03	9.31571e+02	3.90277e+00	1.97635e+00	4.56125e+01	9.28751e+00	3.61907e+00	1.32508e+00	1.00000e+00	0.00000e+00
1.47539e+01	2.09444e+02	1.54901e+03	9.31538e+02	3.90327e+00	1.97663e+00	4.56125e+01	9.28812e+00	3.61947e+00	1.32522e+00	1.00000e+00	0.00000e+00
1.49431e+01	2.11180e+02	1.54886e+03	9.31503e+02	3.90378e+00	1.97692e+00	4.56125e+01	9.28873e+00	3.61987e+00	1.32536e+00	1.00000e+00	0.00000e+00
1.51322e+01	2.12931e+02	1.54870e+03	9.31469e+02	3.90430e+00	1.97721e+00	4.56125e+01	9.28934e+00	3.62028e+00	1.32551e+00	1.00000e+00	0.00000e+00
1.53214e+01	2.14696e+02	1.54855e+03	9.31433e+02	3.90482e+00	1.97750e+00	4.56125e+01	9.28995e+00	3.62068e+00	1.32565e+00	1.00000e+00	0.00000e+00
1.55105e+01	2.16476e+02	1.54840e+03	9.31397e+02	3.90535e+00	1.97780e+00	4.56125e+01	9.29056e+00	3.62108e+00	1.32579e+00	1.00000e+00	0.00000e+00
1.56997e+01	2.18271e+02	1.54824e+03	9.31360e+02	3.90589e+00	1.97810e+00	4.56125e+01	9.29117e+00	3.62148e+00	1.32593e+00	1.00000e+00	0.00000e+00
1.58888e+01	2.20080e+02	1.54809e+03	9.31323e+02	3.90644e+00	1.97841e+00	4.56125e+01	9.29178e+00	3.62188e+00	1.32608e+00	1.00000e+00	0.00000e+00
1.60780e+01	2.21905e+02	1.54794e+03	9.31285e+02	3.90699e+00	1.97872e+00	4.56125e+01	9.29239e+00	3.62228e+00	1.32622e+00	1.00000e+00	0.00000e+00
1.62671e+01	2.23745e+02	1.54778e+03	9.31246e+02	3.90755e+00	1.97903e+00	4.56125e+01	9.29299e+00	3.62268e+00	1.32636e+00	1.00000e+00	0.00000e+00
1.64563e+01	2.25599e+02	1.54763e+03	9.31207e+02	3.90812e+00	1.97935e+00	4.56125e+01	9.29360e+00	3.62308e+00	1.32650e+00	1.00000e+00	0.00000e+00
1.66454e+01	2.27470e+02	1.54748e+03	9.31167e+02	3.90870e+00	1.97967e+00	4.56125e+01	9.29421e+00	3.62348e+00	1.32665e+00	1.00000e+00	0.00000e+00
1.68346e+01	2.29356e+02	1.54732e+03	9.31127e+02	3.90929e+00	1.98000e+00	4.56125e+01	9.29482e+00	3.62388e+00	1.32679e+00	1.00000e+00	0.00000e+00
1.70238e+01	2.31257e+02	1.54717e+03	9.31085e+02	3.90989e+00	1.98033e+00	4.56125e+01	9.29542e+00	3.62428e+00	1.32693e+00	1.00000e+00	0.00000e+00
1.72129e+01	2.33174e+02	1.54702e+03	9.31043e+02	3.91049e+00	1.98067e+00	4.56125e+01	9.29603e+00	3.62468e+00	1.32708e+00	1.00000e+00	0.00000e+00
1.74021e+01	2.35107e+02	1.54686e+03	9.31001e+02	3.91110e+00	1.98100e+00	4.56125e+01	9.29664e+00	3.62508e+00	1.32722e+00	1.00000e+00	0.00000e+00
1.75912e+01	2.37056e+02	1.54671e+03	9.30958e+02	3.91172e+00	1.98135e+00	4.56125e+01	9.29725e+00	3.62548e+00	1.32736e+00	1.00000e+00	0.00000e+00
1.77804e+01	2.39022e+02	1.54656e+03	9.30914e+02	3.91235e+00	1.98169e+00	4.56125e+01	9.29785e+00	3.62588e+00	1.32751e+00	1.00000e+00	0.00000e+00
1.79695e+01	2.41003e+02	1.54641e+03	9.30869e+02	3.91298e+00	1.98205e+00	4.56125e+01	9.29846e+00	3.62628e+00	1.32765e+00	1.00000e+00	0.00000e+00
1.81587e+01	2.43001e+02	1.54625e+03	9.30824e+02	3.91363e+00	1.98240e+00	4.56125e+01	9.29907e+00	3.62668e+00	1.32779e+00	1.00000e+00	0.00000e+00
1.83478e+01	2.45016e+02	1.54610e+03	9.30778e+02	3.91428e+00	1.98276e+00	4.56125e+01	9.29967e+00	3.62707e+00	1.32794e+00	1.00000e+00	0.00000e+00
1.85370e+01	2.47047e+02	1.54595e+03	9.30731e+02	3.91494e+00	1.98312e+00	4.56125e+01	9.30028e+00	3.62747e+00	1.32808e+00	1.00000e+00	0.00000e+00
1.87261e+01	2.49095e+02	1.54579e+03	9.30684e+02	3.91561e+00	1.98349e+00	4.56125e+01	9.30088e+00	3.62787e+00	1.32822e+00	1.00000e+00	0.00000e+00
1.89153e+01	2.51160e+02	1.54564e+03	9.30636e+02	3.91628e+00	1.98386e+00	4.56125e+01	9.30149e+00	3.62827e+00	1.32837e+00	1.00000e+00	0.00000e+00
1.91044e+01	2.53242e+02	1.54549e+03	9.30587e+02	3.91696e+00	1.98424e+00	4.56125e+01	9.30210e+00	3.62867e+00	1.32851e+00	1.00000e+00	0.00000e+00
1.92936e+01	2.55342e+02	1.54533e+03	9.30537e+02	3.91765e+00	1.98462e+00	4.56125e+01	9.30270e+00	3.62907e+00	1.32865e+00	1.00000e+00	0.00000e+00
1.94827e+01	2.57459e+02	1.54518e+03	9.30487e+02	3.91835e+00	1.98500e+00	4.56125e+01	9.30331e+00	3.62947e+00	1.32880e+00	1.00000e+00	0.00000e+00
1.96719e+01	2.59593e+02	1.54503e+03	9.30436e+02	3.91905e+00	1.98538e+00	4.56125e+01	9.30391e+00	3.62987e+00	1.32894e+00	1.00000e+00	0.00000e+00
1.98610e+01	2.59607e+02	1.54487e+03	9.30384e+02	3.91917e+00	1.98547e+00	4.56125e+01	9.30452e+00	3.63027e+00	1.32909e+00	1.00000e+00	0.00000e+00
2.00502e+01	2.59621e+02	1.54472e+03	9.30332e+02	3.91929e+00	1.98556e+00	4.56125e+01	9.30512e+00	3.63067e+00	1.32923e+00	1.00000e+00	0.00000e+00
2.02394e+01	2.59635e+02	1.54457e+03	9.30278e+02	3.91941e+00	1.98565e+00	4.56125e+01	9.30572e+00	3.63106e+00	1.32937e+00	1.00000e+00	0.00000e+00
2.04285e+01	2.59650e+02	1.54442e+03	9.30224e+02	3.91952e+00	1.98574e+00	4.56125e+01	9.30633e+00	3.63146e+00	1.32952e+00	1.00000e+00	0.00000e+00
2.06177e+01	2.59664e+02	1.54426e+03	9.30170e+02	3.91964e+00	1.98583e+00	4.56125e+01	9.30693e+00	3.63186e+00	1.32966e+00	1.00000e+00	0.00000e+00
2.08068e+01	2.59679e+02	1.54411e+03	9.30114e+02	3.91976e+00	1.98592e+00	4.56125e+01	9.30754e+00	3.63226e+00	1.32981e+00	1.00000e+00	0.00000e+00
2.09960e+01	2.59693e+02	1.54396e+03	9.30058e+02	3.91988e+00	1.98601e+00	4.56125e+01	9.30814e+00	3.63266e+00	1.32995e+00	1.00000e+00	0.00000e+00
2.11851e+01	2.59708e+02	1.54380e+03	9.30001e+02	3.91999e+00	1.98609e+00	4.56125e+01	9.30874e+00	3.63306e+00	1.33009e+00	1.00000e+00	0.00000e+00
2.13743e+01	2.59722e+02	1.54365e+03	9.29943e+02	3.92011e+00	1.98618e+00	4.56125e+01	9.30935e+00	3.63346e+00	1.33024e+00	1.00000e+00	0.00000e+00
2.15634e+01	2.59737e+02	1.54350e+03	9.29884e+02	3.92023e+00	1.98627e+00	4.56125e+01	9.30995e+00	3.63385e+00	1.33038e+00	1.00000e+00	0.00000e+00
2.17526e+01	2.59751e+02	1.54335e+03	9.29825e+02	3.92035e+00	1.98636e+00	4.56125e+01	9.31055e+00	3.63425e+00	1.33053e+00	1.00000e+00	0.00000e+00
2.19417e+01	2.59766e+02	1.54319e+03	9.29764e+02	3.92046e+00	1.98645e+00	4.56125e+01	9.31116e+00	3.63465e+00	1.33067e+00	1.00000e+00	0.00000e+00
2.21309e+01	2.59781e+02	1.54304e+03	9.29703e+02	3.92058e+00	1.98654e+00	4.56125e+01	9.31176e+00	3.63505e+00	1.33082e+00	1.00000e+00	0.00000e+00
2.23200e+01	2.59796e+02	1.54289e+03	9.29642e+02	3.92070e+00	1.98663e+00	4.56125e+01	9.31236e+00	3.63545e+00	1.33096e+00	1.00000e+00	0.00000e+00
2.25092e+01	2.59811e+02	1.54273e+03	9.29579e+02	3.92081e+00	1.98672e+00	4.56125e+01	9.31296e+00	3.63584e+00	1.33111e+00	1.00000e+00	0.00000e+00
2.26983e+01	2.59826e+02	1.54258e+03	9.29515e+02	3.92093e+00	1.98680e+00	4.56125e+01	9.31356e+00	3.63624e+00	1.33125e+00	1.00000e+00	0.00000e+00
2.28875e+01	2.59841e+02	1.54243e+03	9.29451e+02	3.92105e+00	1.98689e+00	4.56125e+01	9.31417e+00	3.63664e+00	1.33139e+00	1.00000e+00	0.00000e+00
2.30766e+01	2.59856e+02	1.54228e+03	9.29386e+02	3.92117e+00	1.98698e+00	4.56125e+01	9.31477e+00	3.63704e+00	1.33154e+00	1.00000e+00	0.00000e+00
2.32658e+01	2.59872e+02	1.54212e+03	9.29320e+02	3.92128e+00	1.98707e+00	4.56125e+01	9.31537e+00	3.63743e+00	1.33168e+00	1.00000e+00	0.00000e+00
2.34550e+01	2.59887e+02	1.54197e+03	9.29253e+02	3.92140e+00	1.98716e+00	4.56125e+01	9.31597e+00	3.63783e+00	1.33183e+00	1.00000e+00	0.00000e+00
2.36441e+01	2.59902e+02	1.54182e+03	9.29186e+02	3.92152e+00	1.98725e+00	4.56125e+01	9.31657e+00	3.63823e+00	1.33197e+00	1.00000e+00	0.00000e+00
2.38333e+01	2.59918e+02	1.54166e+03	9.29117e+02	3.92163e+00	1.98733e+00	4.56125e+01	9.31717e+00	3.63863e+00	1.33212e+00	1.00000e+00	0.00000e+00
2.40224e+01	2.59933e+02	1.54151e+03	9.29048e+02	3.92175e+00	1.98742e+00	4.56125e+01	9.31777e+00	3.63902e+00	1.33226e+00	1.00000e+00	0.00000e+00
2.42116e+01	2.59949e+02	1.54136e+03	9.28977e+02	3.92187e+00	1.98751e+00	4.56125e+01	9.31837e+00	3.63942e+00	1.33241e+00	1.00000e+00	0.00000e+00
2.44007e+01	2.59964e+02	1.54121e+03	9.28906e+02	3.92198e+00	1.98760e+00	4.56125e+01	9.31897e+00	3.63982e+00	1.33255e+00	1.00000e+00	0.00000e+00
2.45899e+01	2.59980e+02	1.54105e+03	9.28834e+02	3.92210e+00	1.98769e+00	4.56125e+01	9.31957e+00	3.64021e+00	1.33270e+00	1.00000e+00	0.00000e+00
2.47790e+01	2.59996e+02	1.54090e+03	9.28762e+02	3.92222e+00	1.98778e+00	4.56125e+01	9.32017e+00	3.64061e+00	1.33285e+00	1.00000e+00	0.00000e+00
2.49682e+01	2.60012e+02	1.54075e+03	9.28688e+02	3.92233e+00	1.98787e+00	4.56125e+01	9.32077e+00	3.64101e+00	1.33299e+00	1.00000e+00	0.00000e+00
2.51573e+01	2.60027e+02	1.54059e+03	9.28613e+02	3.92245e+00	1.98795e+00	4.56125e+01	9.32137e+00	3.64141e+00	1.33314e+00	1.00000e+00	0.00000e+00
2.53465e+01	2.60043e+02	1.54044e+03	9.28538e+02	3.92257e+00	1.98804e+00	4.56125e+01	9.32197e+00	3.64180e+00	1.33328e+00	1.00000e+00	0.00000e+00
2.55356e+01	2.60059e+02	1.54029e+03	9.28461e+02	3.92268e+00	1.98813e+00	4.56125e+01	9.32257e+00	3.64220e+00	1.33343e+00	1.00000e+00	0.00000e+00
2.57248e+01	2.60076e+02	1.54014e+03	9.28384e+02	3.92280e+00	1.98822e+00	4.56125e+01	9.32317e+00	3.64260e+00	1.33357e+00	1.00000e+00	0.00000e+00
2.59139e+01	2.60092e+02	1.53998e+03	9.28306e+02	3.92292e+00	1.98831e+00	4.56125e+01	9.32377e+00	3.64299e+00	1.33372e+00	1.00000e+00	0.00000e+00
