P (MPa)		T (K)		r (km)		rho (kg m-3)	VP (km s-1)	VS (km s-1)	QS/gamma	k for 0.01 mol/kg MgSO4 (S m-1)	
0.00000e+00	9.40000e+01	2.57500e+03	9.32602e+02	3.87821e+00	1.96165e+00	1.36549e+05	0.00000e+00
1.94288e+00	1.13838e+02	2.57354e+03	9.32602e+02	3.88093e+00	1.96333e+00	1.57224e+04	0.00000e+00
3.88575e+00	1.37862e+02	2.57200e+03	9.32786e+02	3.88454e+00	1.96546e+00	2.63841e+03	0.00000e+00
5.82863e+00	1.66956e+02	2.57047e+03	9.32969e+02	3.88969e+00	1.96837e+00	6.04297e+02	0.00000e+00
7.77151e+00	2.02190e+02	2.56893e+03	9.33152e+02	3.89743e+00	1.97259e+00	1.78938e+02	0.00000e+00
9.71438e+00	2.44860e+02	2.56739e+03	9.33334e+02	3.90900e+00	1.97874e+00	6.55028e+01	0.00000e+00
1.16573e+01	2.44889e+02	2.56586e+03	9.33515e+02	3.91019e+00	1.97965e+00	6.54655e+01	0.00000e+00
1.36001e+01	2.44918e+02	2.56432e+03	9.33695e+02	3.91138e+00	1.98056e+00	6.54279e+01	0.00000e+00
1.55430e+01	2.44948e+02	2.56279e+03	9.33875e+02	3.91257e+00	1.98146e+00	6.53900e+01	0.00000e+00
1.74859e+01	2.44979e+02	2.56126e+03	9.34053e+02	3.91375e+00	1.98236e+00	6.53517e+01	0.00000e+00
1.94288e+01	2.45009e+02	2.55972e+03	9.34231e+02	3.91493e+00	1.98326e+00	6.53130e+01	0.00000e+00
2.13716e+01	2.45040e+02	2.55819e+03	9.34407e+02	3.91610e+00	1.98415e+00	6.52740e+01	0.00000e+00
2.33145e+01	2.45071e+02	2.55666e+03	9.34582e+02	3.91727e+00	1.98504e+00	6.52347e+01	0.00000e+00
2.52574e+01	2.45102e+02	2.55513e+03	9.34756e+02	3.91843e+00	1.98593e+00	6.51950e+01	0.00000e+00
2.72003e+01	2.45134e+02	2.55360e+03	9.34929e+02	3.91959e+00	1.98682e+00	6.51550e+01	0.00000e+00
2.91431e+01	2.45166e+02	2.55207e+03	9.35101e+02	3.92074e+00	1.98770e+00	6.51146e+01	0.00000e+00
3.10860e+01	2.45198e+02	2.55055e+03	9.35271e+02	3.92190e+00	1.98858e+00	6.50739e+01	0.00000e+00
3.30289e+01	2.45231e+02	2.54902e+03	9.35440e+02	3.92304e+00	1.98946e+00	6.50327e+01	0.00000e+00
3.49718e+01	2.45263e+02	2.54749e+03	9.35608e+02	3.92418e+00	1.99034e+00	6.49913e+01	0.00000e+00
3.69147e+01	2.45297e+02	2.54597e+03	9.35774e+02	3.92532e+00	1.99121e+00	6.49494e+01	0.00000e+00
3.88575e+01	2.45330e+02	2.54444e+03	9.35939e+02	3.92645e+00	1.99209e+00	6.49072e+01	0.00000e+00
4.08004e+01	2.45364e+02	2.54292e+03	9.36102e+02	3.92758e+00	1.99296e+00	6.48646e+01	0.00000e+00
4.27433e+01	2.45398e+02	2.54140e+03	9.36263e+02	3.92871e+00	1.99382e+00	6.48216e+01	0.00000e+00
4.46862e+01	2.45433e+02	2.53987e+03	9.36423e+02	3.92983e+00	1.99469e+00	6.47783e+01	0.00000e+00
4.66290e+01	2.45468e+02	2.53835e+03	9.36581e+02	3.93095e+00	1.99555e+00	6.47346e+01	0.00000e+00
4.85719e+01	2.45503e+02	2.53683e+03	9.36737e+02	3.93206e+00	1.99641e+00	6.46905e+01	0.00000e+00
5.05148e+01	2.45539e+02	2.53531e+03	9.36891e+02	3.93318e+00	1.99727e+00	6.46460e+01	0.00000e+00
5.24577e+01	2.45575e+02	2.53379e+03	9.37043e+02	3.93428e+00	1.99813e+00	6.46011e+01	0.00000e+00
5.44005e+01	2.45611e+02	2.53227e+03	9.37194e+02	3.93539e+00	1.99898e+00	6.45558e+01	0.00000e+00
5.63434e+01	2.45647e+02	2.53076e+03	9.37342e+02	3.93649e+00	1.99983e+00	6.45101e+01	0.00000e+00
5.82863e+01	2.45684e+02	2.52924e+03	9.37488e+02	3.93758e+00	2.00068e+00	6.44640e+01	0.00000e+00
6.02292e+01	2.45722e+02	2.52772e+03	9.37632e+02	3.93867e+00	2.00153e+00	6.44175e+01	0.00000e+00
6.21720e+01	2.45759e+02	2.52621e+03	9.37773e+02	3.93976e+00	2.00237e+00	6.43706e+01	0.00000e+00
6.41149e+01	2.45798e+02	2.52469e+03	9.37913e+02	3.94085e+00	2.00322e+00	6.43233e+01	0.00000e+00
6.60578e+01	2.45836e+02	2.52318e+03	9.38050e+02	3.94193e+00	2.00406e+00	6.42756e+01	0.00000e+00
6.80007e+01	2.45875e+02	2.52166e+03	9.38184e+02	3.94301e+00	2.00490e+00	6.42275e+01	0.00000e+00
6.99436e+01	2.45914e+02	2.52015e+03	9.38316e+02	3.94409e+00	2.00574e+00	6.41789e+01	0.00000e+00
7.18864e+01	2.45954e+02	2.51864e+03	9.38445e+02	3.94516e+00	2.00657e+00	6.41299e+01	0.00000e+00
7.38293e+01	2.45994e+02	2.51713e+03	9.38572e+02	3.94623e+00	2.00741e+00	6.40805e+01	0.00000e+00
7.57722e+01	2.46034e+02	2.51562e+03	9.38696e+02	3.94730e+00	2.00824e+00	6.40307e+01	0.00000e+00
7.77151e+01	2.46075e+02	2.51411e+03	9.38817e+02	3.94837e+00	2.00907e+00	6.39804e+01	0.00000e+00
7.96579e+01	2.46116e+02	2.51260e+03	9.38935e+02	3.94943e+00	2.00990e+00	6.39297e+01	0.00000e+00
8.16008e+01	2.46158e+02	2.51109e+03	9.39050e+02	3.95049e+00	2.01073e+00	6.38786e+01	0.00000e+00
8.35437e+01	2.46200e+02	2.50958e+03	9.39162e+02	3.95154e+00	2.01155e+00	6.38270e+01	0.00000e+00
8.54866e+01	2.46242e+02	2.50807e+03	9.39271e+02	3.95260e+00	2.01238e+00	6.37750e+01	0.00000e+00
8.74294e+01	2.46285e+02	2.50657e+03	9.39377e+02	3.95365e+00	2.01320e+00	6.37225e+01	0.00000e+00
8.93723e+01	2.46328e+02	2.50506e+03	9.39479e+02	3.95469e+00	2.01402e+00	6.36695e+01	0.00000e+00
9.13152e+01	2.46372e+02	2.50356e+03	9.39578e+02	3.95574e+00	2.01484e+00	6.36162e+01	0.00000e+00
9.32581e+01	2.46416e+02	2.50205e+03	9.39674e+02	3.95678e+00	2.01566e+00	6.35623e+01	0.00000e+00
9.52010e+01	2.46460e+02	2.50055e+03	9.39765e+02	3.95782e+00	2.01647e+00	6.35080e+01	0.00000e+00
9.71438e+01	2.46505e+02	2.49905e+03	9.39854e+02	3.95886e+00	2.01729e+00	6.34532e+01	0.00000e+00
9.90867e+01	2.46551e+02	2.49754e+03	9.39938e+02	3.95989e+00	2.01810e+00	6.33980e+01	0.00000e+00
1.01030e+02	2.46597e+02	2.49604e+03	9.40019e+02	3.96092e+00	2.01891e+00	6.33423e+01	0.00000e+00
1.02972e+02	2.46643e+02	2.49454e+03	9.40096e+02	3.96195e+00	2.01972e+00	6.32861e+01	0.00000e+00
1.04915e+02	2.46690e+02	2.49304e+03	9.40169e+02	3.96298e+00	2.02053e+00	6.32294e+01	0.00000e+00
1.06858e+02	2.46737e+02	2.49154e+03	9.40237e+02	3.96401e+00	2.02133e+00	6.31722e+01	0.00000e+00
1.08801e+02	2.46784e+02	2.49004e+03	9.40302e+02	3.96503e+00	2.02214e+00	6.31146e+01	0.00000e+00
1.10744e+02	2.46833e+02	2.48854e+03	9.40362e+02	3.96605e+00	2.02294e+00	6.30565e+01	0.00000e+00
1.12687e+02	2.46881e+02	2.48704e+03	9.40418e+02	3.96707e+00	2.02374e+00	6.29978e+01	0.00000e+00
1.14630e+02	2.46930e+02	2.48555e+03	9.40469e+02	3.96808e+00	2.02455e+00	6.29387e+01	0.00000e+00
1.16573e+02	2.46980e+02	2.48405e+03	9.40516e+02	3.96910e+00	2.02535e+00	6.28791e+01	0.00000e+00
1.18515e+02	2.47030e+02	2.48255e+03	9.40558e+02	3.97011e+00	2.02614e+00	6.28190e+01	0.00000e+00
1.20458e+02	2.47080e+02	2.48106e+03	9.40595e+02	3.97112e+00	2.02694e+00	6.27583e+01	0.00000e+00
1.22401e+02	2.47132e+02	2.47956e+03	9.40627e+02	3.97213e+00	2.02774e+00	6.26972e+01	0.00000e+00
1.24344e+02	2.47183e+02	2.47807e+03	9.40655e+02	3.97313e+00	2.02853e+00	6.26355e+01	0.00000e+00
1.26287e+02	2.47235e+02	2.47657e+03	9.40677e+02	3.97414e+00	2.02932e+00	6.25733e+01	0.00000e+00
1.28230e+02	2.47288e+02	2.47508e+03	9.40694e+02	3.97514e+00	2.03012e+00	6.25106e+01	0.00000e+00
1.30173e+02	2.47341e+02	2.47359e+03	9.40706e+02	3.97614e+00	2.03091e+00	6.24474e+01	0.00000e+00
1.32116e+02	2.47394e+02	2.47210e+03	9.40712e+02	3.97713e+00	2.03170e+00	6.23836e+01	0.00000e+00
1.34058e+02	2.47449e+02	2.47060e+03	9.40713e+02	3.97813e+00	2.03248e+00	6.23194e+01	0.00000e+00
1.36001e+02	2.47503e+02	2.46911e+03	9.40708e+02	3.97912e+00	2.03327e+00	6.22545e+01	0.00000e+00
1.37944e+02	2.47558e+02	2.46762e+03	9.40698e+02	3.98012e+00	2.03406e+00	6.21892e+01	0.00000e+00
1.39887e+02	2.47614e+02	2.46613e+03	9.40681e+02	3.98111e+00	2.03484e+00	6.21232e+01	0.00000e+00
1.41830e+02	2.47670e+02	2.46464e+03	9.40659e+02	3.98209e+00	2.03563e+00	6.20568e+01	0.00000e+00
1.43773e+02	2.47727e+02	2.46315e+03	9.40631e+02	3.98308e+00	2.03641e+00	6.19898e+01	0.00000e+00
1.45716e+02	2.47785e+02	2.46166e+03	9.40597e+02	3.98406e+00	2.03719e+00	6.19222e+01	0.00000e+00
1.47659e+02	2.47843e+02	2.46018e+03	9.40556e+02	3.98505e+00	2.03797e+00	6.18541e+01	0.00000e+00
1.49601e+02	2.47901e+02	2.45869e+03	9.40510e+02	3.98603e+00	2.03875e+00	6.17854e+01	0.00000e+00
1.51544e+02	2.47960e+02	2.45720e+03	9.40457e+02	3.98701e+00	2.03953e+00	6.17161e+01	0.00000e+00
1.53487e+02	2.48020e+02	2.45572e+03	9.40397e+02	3.98798e+00	2.04030e+00	6.16463e+01	0.00000e+00
1.55430e+02	2.48080e+02	2.45423e+03	9.40331e+02	3.98896e+00	2.04108e+00	6.15759e+01	0.00000e+00
1.57373e+02	2.48141e+02	2.45274e+03	9.40258e+02	3.98993e+00	2.04185e+00	6.15049e+01	0.00000e+00
1.59316e+02	2.48203e+02	2.45126e+03	9.40179e+02	3.99091e+00	2.04263e+00	6.14334e+01	0.00000e+00
1.61259e+02	2.48265e+02	2.44977e+03	9.40093e+02	3.99188e+00	2.04340e+00	6.13612e+01	0.00000e+00
1.63202e+02	2.48328e+02	2.44829e+03	9.40001e+02	3.99285e+00	2.04417e+00	6.12885e+01	0.00000e+00
1.65145e+02	2.48391e+02	2.44680e+03	9.39901e+02	3.99381e+00	2.04494e+00	6.12152e+01	0.00000e+00
1.67087e+02	2.48455e+02	2.44532e+03	9.39795e+02	3.99478e+00	2.04571e+00	6.11412e+01	0.00000e+00
1.69030e+02	2.48519e+02	2.44384e+03	9.39681e+02	3.99574e+00	2.04648e+00	6.10667e+01	0.00000e+00
1.70973e+02	2.48585e+02	2.44235e+03	9.39561e+02	3.99671e+00	2.04725e+00	6.09916e+01	0.00000e+00
1.72916e+02	2.48651e+02	2.44087e+03	9.39434e+02	3.99767e+00	2.04801e+00	6.09159e+01	0.00000e+00
1.74859e+02	2.48717e+02	2.43939e+03	9.39300e+02	3.99863e+00	2.04878e+00	6.08395e+01	0.00000e+00
1.76802e+02	2.48784e+02	2.43791e+03	9.39159e+02	3.99958e+00	2.04954e+00	6.07626e+01	0.00000e+00
1.78745e+02	2.48852e+02	2.43643e+03	9.39011e+02	4.00054e+00	2.05031e+00	6.06850e+01	0.00000e+00
1.80688e+02	2.48921e+02	2.43494e+03	9.38856e+02	4.00149e+00	2.05107e+00	6.06068e+01	0.00000e+00
1.82630e+02	2.48990e+02	2.43346e+03	9.38694e+02	4.00245e+00	2.05183e+00	6.05280e+01	0.00000e+00
1.84573e+02	2.49060e+02	2.43198e+03	9.38526e+02	4.00340e+00	2.05259e+00	6.04485e+01	0.00000e+00
1.86516e+02	2.49130e+02	2.43050e+03	9.38351e+02	4.00435e+00	2.05335e+00	6.03684e+01	0.00000e+00
1.88459e+02	2.49201e+02	2.42902e+03	9.38169e+02	4.00530e+00	2.05411e+00	6.02877e+01	0.00000e+00
1.90402e+02	2.49273e+02	2.42754e+03	9.37980e+02	4.00624e+00	2.05487e+00	6.02063e+01	0.00000e+00
1.92345e+02	2.52000e+02	2.42606e+03	9.37785e+02	4.00793e+00	2.05600e+00	5.72350e+01	0.00000e+00
1.95917e+02	2.52001e+02	2.42390e+03	1.17959e+03	1.83379e+00	0.00000e+00	0.00000e+00	2.14381e-02
1.99490e+02	2.52002e+02	2.42174e+03	1.18065e+03	1.83966e+00	0.00000e+00	0.00000e+00	2.14474e-02
2.03062e+02	2.52004e+02	2.41958e+03	1.18170e+03	1.84549e+00	0.00000e+00	0.00000e+00	2.14582e-02
2.06635e+02	2.52006e+02	2.41743e+03	1.18275e+03	1.85129e+00	0.00000e+00	0.00000e+00	2.14705e-02
2.10208e+02	2.52009e+02	2.41528e+03	1.18378e+03	1.85705e+00	0.00000e+00	0.00000e+00	2.14844e-02
2.13780e+02	2.52013e+02	2.41313e+03	1.18482e+03	1.86278e+00	0.00000e+00	0.00000e+00	2.14998e-02
2.17353e+02	2.52018e+02	2.41098e+03	1.18584e+03	1.86847e+00	0.00000e+00	0.00000e+00	2.15166e-02
2.20925e+02	2.52023e+02	2.40883e+03	1.18686e+03	1.87412e+00	0.00000e+00	0.00000e+00	2.15350e-02
2.24498e+02	2.52029e+02	2.40669e+03	1.18788e+03	1.87974e+00	0.00000e+00	0.00000e+00	2.15548e-02
2.28070e+02	2.52035e+02	2.40455e+03	1.18888e+03	1.88532e+00	0.00000e+00	0.00000e+00	2.15761e-02
2.31643e+02	2.52042e+02	2.40241e+03	1.18989e+03	1.89087e+00	0.00000e+00	0.00000e+00	2.15988e-02
2.35216e+02	2.52050e+02	2.40028e+03	1.19088e+03	1.89637e+00	0.00000e+00	0.00000e+00	2.16230e-02
2.38788e+02	2.52058e+02	2.39814e+03	1.19187e+03	1.90184e+00	0.00000e+00	0.00000e+00	2.16486e-02
2.42361e+02	2.52067e+02	2.39601e+03	1.19286e+03	1.90727e+00	0.00000e+00	0.00000e+00	2.16758e-02
2.45933e+02	2.52077e+02	2.39388e+03	1.19384e+03	1.91266e+00	0.00000e+00	0.00000e+00	2.17044e-02
2.49506e+02	2.52087e+02	2.39176e+03	1.19481e+03	1.91802e+00	0.00000e+00	0.00000e+00	2.17344e-02
2.53078e+02	2.52097e+02	2.38963e+03	1.19578e+03	1.92333e+00	0.00000e+00	0.00000e+00	2.17660e-02
2.56651e+02	2.52109e+02	2.38751e+03	1.19674e+03	1.92860e+00	0.00000e+00	0.00000e+00	2.17992e-02
2.60224e+02	2.52121e+02	2.38539e+03	1.19770e+03	1.93383e+00	0.00000e+00	0.00000e+00	2.18338e-02
2.63796e+02	2.52134e+02	2.38327e+03	1.19865e+03	1.93902e+00	0.00000e+00	0.00000e+00	2.18700e-02
2.67369e+02	2.52147e+02	2.38116e+03	1.19960e+03	1.94416e+00	0.00000e+00	0.00000e+00	2.19078e-02
2.70941e+02	2.52161e+02	2.37904e+03	1.20055e+03	1.94926e+00	0.00000e+00	0.00000e+00	2.19471e-02
2.74514e+02	2.52175e+02	2.37693e+03	1.20148e+03	1.95431e+00	0.00000e+00	0.00000e+00	2.19880e-02
2.78086e+02	2.52191e+02	2.37482e+03	1.20242e+03	1.95931e+00	0.00000e+00	0.00000e+00	2.20304e-02
2.81659e+02	2.52206e+02	2.37272e+03	1.20335e+03	1.96428e+00	0.00000e+00	0.00000e+00	2.20744e-02
2.85232e+02	2.52223e+02	2.37061e+03	1.20427e+03	1.96921e+00	0.00000e+00	0.00000e+00	2.21200e-02
2.88804e+02	2.52240e+02	2.36851e+03	1.20519e+03	1.97410e+00	0.00000e+00	0.00000e+00	2.21671e-02
2.92377e+02	2.52257e+02	2.36641e+03	1.20610e+03	1.97896e+00	0.00000e+00	0.00000e+00	2.22157e-02
2.95949e+02	2.52276e+02	2.36431e+03	1.20701e+03	1.98378e+00	0.00000e+00	0.00000e+00	2.22658e-02
2.99522e+02	2.52295e+02	2.36222e+03	1.20792e+03	1.98857e+00	0.00000e+00	0.00000e+00	2.23173e-02
3.03094e+02	2.52314e+02	2.36012e+03	1.20882e+03	1.99334e+00	0.00000e+00	0.00000e+00	2.23704e-02
3.06667e+02	2.52334e+02	2.35803e+03	1.20972e+03	1.99807e+00	0.00000e+00	0.00000e+00	2.24249e-02
3.10239e+02	2.52355e+02	2.35594e+03	1.21061e+03	2.00278e+00	0.00000e+00	0.00000e+00	2.24807e-02
3.13812e+02	2.52376e+02	2.35386e+03	1.21150e+03	2.00746e+00	0.00000e+00	0.00000e+00	2.25380e-02
3.17385e+02	2.52398e+02	2.35177e+03	1.21239e+03	2.01211e+00	0.00000e+00	0.00000e+00	2.25966e-02
3.20957e+02	2.52420e+02	2.34969e+03	1.21327e+03	2.01674e+00	0.00000e+00	0.00000e+00	2.26566e-02
3.24530e+02	2.52440e+02	2.34750e+03	1.15352e+03	3.78422e+00	2.04534e+00	1.06586e+02	0.00000e+00
3.28102e+02	2.52494e+02	2.34531e+03	1.15383e+03	3.78877e+00	2.05002e+00	1.06467e+02	0.00000e+00
3.31675e+02	2.52576e+02	2.34312e+03	1.15412e+03	3.79335e+00	2.05470e+00	1.06285e+02	0.00000e+00
3.35247e+02	2.52670e+02	2.34093e+03	1.15440e+03	3.79795e+00	2.05939e+00	1.06078e+02	0.00000e+00
3.38820e+02	2.52764e+02	2.33875e+03	1.15467e+03	3.80254e+00	2.06406e+00	1.05872e+02	0.00000e+00
3.42393e+02	2.52857e+02	2.33657e+03	1.15495e+03	3.80712e+00	2.06871e+00	1.05666e+02	0.00000e+00
3.45965e+02	2.52951e+02	2.33438e+03	1.15522e+03	3.81169e+00	2.07336e+00	1.05461e+02	0.00000e+00
3.49538e+02	2.53045e+02	2.33220e+03	1.15549e+03	3.81626e+00	2.07799e+00	1.05257e+02	0.00000e+00
3.53110e+02	2.53139e+02	2.33016e+03	1.23446e+03	4.17512e+00	2.20790e+00	1.23988e+02	0.00000e+00
3.56683e+02	2.53299e+02	2.32812e+03	1.23506e+03	4.17619e+00	2.20796e+00	1.23988e+02	0.00000e+00
3.60255e+02	2.53497e+02	2.32609e+03	1.23564e+03	4.17728e+00	2.20803e+00	1.23988e+02	0.00000e+00
3.63828e+02	2.53696e+02	2.32405e+03	1.23623e+03	4.17836e+00	2.20809e+00	1.23988e+02	0.00000e+00
3.67401e+02	2.53894e+02	2.32202e+03	1.23681e+03	4.17946e+00	2.20816e+00	1.23988e+02	0.00000e+00
3.70973e+02	2.54093e+02	2.31998e+03	1.23739e+03	4.18055e+00	2.20824e+00	1.23988e+02	0.00000e+00
3.74546e+02	2.54291e+02	2.31795e+03	1.23796e+03	4.18165e+00	2.20831e+00	1.23988e+02	0.00000e+00
3.78118e+02	2.54490e+02	2.31592e+03	1.23854e+03	4.18275e+00	2.20839e+00	1.23988e+02	0.00000e+00
3.81691e+02	2.54690e+02	2.31389e+03	1.23910e+03	4.18386e+00	2.20847e+00	1.23988e+02	0.00000e+00
3.85263e+02	2.54891e+02	2.31186e+03	1.23967e+03	4.18497e+00	2.20855e+00	1.23988e+02	0.00000e+00
3.88836e+02	2.55092e+02	2.30984e+03	1.24023e+03	4.18609e+00	2.20864e+00	1.23988e+02	0.00000e+00
3.92409e+02	2.55292e+02	2.30781e+03	1.24079e+03	4.18721e+00	2.20873e+00	1.23988e+02	0.00000e+00
3.95981e+02	2.55493e+02	2.30579e+03	1.24135e+03	4.18833e+00	2.20882e+00	1.23988e+02	0.00000e+00
3.99554e+02	2.55694e+02	2.30377e+03	1.24190e+03	4.18946e+00	2.20891e+00	1.23988e+02	0.00000e+00
4.03126e+02	2.55895e+02	2.30175e+03	1.24245e+03	4.19059e+00	2.20901e+00	1.23988e+02	0.00000e+00
4.06699e+02	2.56095e+02	2.29973e+03	1.24300e+03	4.19172e+00	2.20911e+00	1.23988e+02	0.00000e+00
4.10271e+02	2.56293e+02	2.29771e+03	1.24354e+03	4.19286e+00	2.20921e+00	1.23988e+02	0.00000e+00
4.13844e+02	2.56491e+02	2.29570e+03	1.24409e+03	4.19401e+00	2.20931e+00	1.23988e+02	0.00000e+00
4.17417e+02	2.56689e+02	2.29368e+03	1.24462e+03	4.19515e+00	2.20942e+00	1.23988e+02	0.00000e+00
4.20989e+02	2.56888e+02	2.29167e+03	1.24516e+03	4.19630e+00	2.20953e+00	1.23988e+02	0.00000e+00
4.24562e+02	2.57086e+02	2.28966e+03	1.24569e+03	4.19746e+00	2.20964e+00	1.23988e+02	0.00000e+00
4.28134e+02	2.57284e+02	2.28765e+03	1.24622e+03	4.19862e+00	2.20976e+00	1.23988e+02	0.00000e+00
4.31707e+02	2.57480e+02	2.28564e+03	1.24674e+03	4.19978e+00	2.20988e+00	1.23988e+02	0.00000e+00
4.35279e+02	2.57673e+02	2.28364e+03	1.24726e+03	4.20095e+00	2.21000e+00	1.23988e+02	0.00000e+00
4.38852e+02	2.57866e+02	2.28163e+03	1.24778e+03	4.20212e+00	2.21012e+00	1.23988e+02	0.00000e+00
4.42424e+02	2.58058e+02	2.27963e+03	1.24830e+03	4.20329e+00	2.21025e+00	1.23988e+02	0.00000e+00
4.45997e+02	2.58251e+02	2.27762e+03	1.24881e+03	4.20447e+00	2.21038e+00	1.23988e+02	0.00000e+00
4.49570e+02	2.58444e+02	2.27562e+03	1.24932e+03	4.20566e+00	2.21051e+00	1.23988e+02	0.00000e+00
4.53142e+02	2.58636e+02	2.27362e+03	1.24983e+03	4.20684e+00	2.21064e+00	1.23988e+02	0.00000e+00
4.56715e+02	2.58827e+02	2.27162e+03	1.25033e+03	4.20804e+00	2.21078e+00	1.23988e+02	0.00000e+00
4.60287e+02	2.59013e+02	2.26963e+03	1.25083e+03	4.20923e+00	2.21092e+00	1.23988e+02	0.00000e+00
4.63860e+02	2.59199e+02	2.26763e+03	1.25133e+03	4.21043e+00	2.21106e+00	1.23988e+02	0.00000e+00
4.67432e+02	2.59385e+02	2.26564e+03	1.25182e+03	4.21163e+00	2.21121e+00	1.23988e+02	0.00000e+00
4.71005e+02	2.59571e+02	2.26364e+03	1.25231e+03	4.21284e+00	2.21136e+00	1.23988e+02	0.00000e+00
4.74578e+02	2.59757e+02	2.26165e+03	1.25280e+03	4.21405e+00	2.21151e+00	1.23988e+02	0.00000e+00
4.78150e+02	2.59943e+02	2.25966e+03	1.25328e+03	4.21527e+00	2.21166e+00	1.23988e+02	0.00000e+00
4.81723e+02	2.60127e+02	2.25767e+03	1.25376e+03	4.21649e+00	2.21182e+00	1.23988e+02	0.00000e+00
4.85295e+02	2.60305e+02	2.25568e+03	1.25424e+03	4.21771e+00	2.21197e+00	1.23988e+02	0.00000e+00
4.88868e+02	2.60484e+02	2.25370e+03	1.25471e+03	4.21894e+00	2.21214e+00	1.23988e+02	0.00000e+00
4.92440e+02	2.60662e+02	2.25171e+03	1.25518e+03	4.22018e+00	2.21230e+00	1.23988e+02	0.00000e+00
4.96013e+02	2.60841e+02	2.24973e+03	1.25565e+03	4.22141e+00	2.21247e+00	1.23988e+02	0.00000e+00
4.99586e+02	2.61019e+02	2.24775e+03	1.25611e+03	4.22265e+00	2.21264e+00	1.23988e+02	0.00000e+00
5.03158e+02	2.61197e+02	2.24577e+03	1.25658e+03	4.22390e+00	2.21281e+00	1.23988e+02	0.00000e+00
5.06731e+02	2.61375e+02	2.24379e+03	1.25703e+03	4.22515e+00	2.21298e+00	1.23988e+02	0.00000e+00
5.10303e+02	2.61545e+02	2.24181e+03	1.25749e+03	4.22640e+00	2.21316e+00	1.23988e+02	0.00000e+00
5.13876e+02	2.61716e+02	2.23983e+03	1.25794e+03	4.22765e+00	2.21334e+00	1.23988e+02	0.00000e+00
5.17448e+02	2.61887e+02	2.23785e+03	1.25839e+03	4.22892e+00	2.21352e+00	1.23988e+02	0.00000e+00
5.21021e+02	2.62057e+02	2.23588e+03	1.25884e+03	4.23018e+00	2.21371e+00	1.23988e+02	0.00000e+00
5.24594e+02	2.62228e+02	2.23391e+03	1.25928e+03	4.23145e+00	2.21389e+00	1.23988e+02	0.00000e+00
5.28166e+02	2.62398e+02	2.23194e+03	1.25972e+03	4.23272e+00	2.21409e+00	1.23988e+02	0.00000e+00
5.31739e+02	2.62569e+02	2.22997e+03	1.26015e+03	4.23400e+00	2.21428e+00	1.23988e+02	0.00000e+00
5.35311e+02	2.62731e+02	2.22800e+03	1.26059e+03	4.23528e+00	2.21447e+00	1.23988e+02	0.00000e+00
5.38884e+02	2.62894e+02	2.22603e+03	1.26102e+03	4.23656e+00	2.21467e+00	1.23988e+02	0.00000e+00
5.42456e+02	2.63057e+02	2.22406e+03	1.26144e+03	4.23785e+00	2.21487e+00	1.23988e+02	0.00000e+00
5.46029e+02	2.63220e+02	2.22210e+03	1.26187e+03	4.23915e+00	2.21508e+00	1.23988e+02	0.00000e+00
5.49601e+02	2.63383e+02	2.22013e+03	1.26229e+03	4.24044e+00	2.21528e+00	1.23988e+02	0.00000e+00
5.53174e+02	2.63545e+02	2.21817e+03	1.26270e+03	4.24174e+00	2.21549e+00	1.23988e+02	0.00000e+00
5.56747e+02	2.63708e+02	2.21621e+03	1.26312e+03	4.24305e+00	2.21570e+00	1.23988e+02	0.00000e+00
5.60319e+02	2.63864e+02	2.21425e+03	1.26353e+03	4.24436e+00	2.21592e+00	1.23988e+02	0.00000e+00
5.63892e+02	2.64019e+02	2.21229e+03	1.26394e+03	4.24567e+00	2.21613e+00	1.23988e+02	0.00000e+00
5.67464e+02	2.64174e+02	2.21033e+03	1.26434e+03	4.24699e+00	2.21635e+00	1.23988e+02	0.00000e+00
5.71037e+02	2.64329e+02	2.20838e+03	1.26474e+03	4.24831e+00	2.21657e+00	1.23988e+02	0.00000e+00
5.74609e+02	2.64484e+02	2.20642e+03	1.26514e+03	4.24963e+00	2.21680e+00	1.23988e+02	0.00000e+00
