P (MPa)		T (K)		r (km)		rho (kg m-3)	VP (km s-1)	VS (km s-1)	QS/gamma	k for 0.01 mol/kg MgSO4 (S m-1)	
0.00000e+00	9.40000e+01	2.57470e+03	9.32528e+02	3.87821e+00	1.96165e+00	1.36549e+05	0.00000e+00
1.28459e+00	1.08243e+02	2.57368e+03	9.32528e+02	3.88005e+00	1.96278e+00	2.66962e+04	0.00000e+00
2.56918e+00	1.24643e+02	2.57267e+03	9.32638e+02	3.88231e+00	1.96413e+00	6.46964e+03	0.00000e+00
3.85377e+00	1.43529e+02	2.57165e+03	9.32748e+02	3.88520e+00	1.96579e+00	1.88933e+03	0.00000e+00
5.13836e+00	1.65276e+02	2.57063e+03	9.32856e+02	3.88900e+00	1.96791e+00	6.48748e+02	0.00000e+00
6.42295e+00	1.90318e+02	2.56962e+03	9.32964e+02	3.89417e+00	1.97073e+00	2.56406e+02	0.00000e+00
7.70754e+00	2.19155e+02	2.56860e+03	9.33071e+02	3.90123e+00	1.97450e+00	1.14505e+02	0.00000e+00
8.99213e+00	2.52361e+02	2.56759e+03	9.33177e+02	3.91058e+00	1.97943e+00	5.68578e+01	0.00000e+00
1.02767e+01	2.52391e+02	2.56657e+03	9.33282e+02	3.91138e+00	1.98004e+00	5.68266e+01	0.00000e+00
1.15613e+01	2.52421e+02	2.56556e+03	9.33387e+02	3.91217e+00	1.98064e+00	5.67951e+01	0.00000e+00
1.28459e+01	2.52451e+02	2.56454e+03	9.33490e+02	3.91296e+00	1.98124e+00	5.67633e+01	0.00000e+00
1.41305e+01	2.52482e+02	2.56353e+03	9.33592e+02	3.91375e+00	1.98184e+00	5.67313e+01	0.00000e+00
1.54151e+01	2.52514e+02	2.56251e+03	9.33694e+02	3.91454e+00	1.98244e+00	5.66989e+01	0.00000e+00
1.66997e+01	2.52545e+02	2.56150e+03	9.33794e+02	3.91532e+00	1.98303e+00	5.66662e+01	0.00000e+00
1.79843e+01	2.52577e+02	2.56049e+03	9.33893e+02	3.91611e+00	1.98363e+00	5.66332e+01	0.00000e+00
1.92688e+01	2.52609e+02	2.55947e+03	9.33991e+02	3.91689e+00	1.98423e+00	5.65999e+01	0.00000e+00
2.05534e+01	2.52642e+02	2.55846e+03	9.34088e+02	3.91767e+00	1.98482e+00	5.65663e+01	0.00000e+00
2.18380e+01	2.52675e+02	2.55745e+03	9.34184e+02	3.91845e+00	1.98541e+00	5.65324e+01	0.00000e+00
2.31226e+01	2.52708e+02	2.55644e+03	9.34279e+02	3.91922e+00	1.98600e+00	5.64981e+01	0.00000e+00
2.44072e+01	2.52741e+02	2.55543e+03	9.34372e+02	3.92000e+00	1.98659e+00	5.64636e+01	0.00000e+00
2.56918e+01	2.52775e+02	2.55441e+03	9.34464e+02	3.92077e+00	1.98718e+00	5.64287e+01	0.00000e+00
2.69764e+01	2.52809e+02	2.55340e+03	9.34554e+02	3.92154e+00	1.98777e+00	5.63935e+01	0.00000e+00
2.82610e+01	2.52844e+02	2.55239e+03	9.34643e+02	3.92231e+00	1.98836e+00	5.63580e+01	0.00000e+00
2.95456e+01	2.52879e+02	2.55138e+03	9.34731e+02	3.92307e+00	1.98895e+00	5.63221e+01	0.00000e+00
3.08302e+01	2.52914e+02	2.55037e+03	9.34817e+02	3.92384e+00	1.98953e+00	5.62859e+01	0.00000e+00
3.21147e+01	2.52950e+02	2.54936e+03	9.34901e+02	3.92460e+00	1.99011e+00	5.62494e+01	0.00000e+00
3.33993e+01	2.52986e+02	2.54835e+03	9.34984e+02	3.92536e+00	1.99070e+00	5.62125e+01	0.00000e+00
3.46839e+01	2.53022e+02	2.54734e+03	9.35066e+02	3.92612e+00	1.99128e+00	5.61753e+01	0.00000e+00
3.59685e+01	2.53059e+02	2.54634e+03	9.35145e+02	3.92688e+00	1.99186e+00	5.61378e+01	0.00000e+00
3.72531e+01	2.53096e+02	2.54533e+03	9.35223e+02	3.92764e+00	1.99244e+00	5.60999e+01	0.00000e+00
3.85377e+01	2.53133e+02	2.54432e+03	9.35299e+02	3.92839e+00	1.99302e+00	5.60616e+01	0.00000e+00
3.98223e+01	2.53171e+02	2.54331e+03	9.35373e+02	3.92914e+00	1.99360e+00	5.60231e+01	0.00000e+00
4.11069e+01	2.53209e+02	2.54230e+03	9.35445e+02	3.92989e+00	1.99417e+00	5.59841e+01	0.00000e+00
4.23915e+01	2.53248e+02	2.54130e+03	9.35516e+02	3.93064e+00	1.99475e+00	5.59448e+01	0.00000e+00
4.36761e+01	2.53287e+02	2.54029e+03	9.35584e+02	3.93139e+00	1.99533e+00	5.59051e+01	0.00000e+00
4.49606e+01	2.53326e+02	2.53928e+03	9.35650e+02	3.93214e+00	1.99590e+00	5.58651e+01	0.00000e+00
4.62452e+01	2.53366e+02	2.53828e+03	9.35714e+02	3.93288e+00	1.99647e+00	5.58247e+01	0.00000e+00
4.75298e+01	2.53406e+02	2.53727e+03	9.35775e+02	3.93362e+00	1.99705e+00	5.57840e+01	0.00000e+00
4.88144e+01	2.53447e+02	2.53626e+03	9.35835e+02	3.93437e+00	1.99762e+00	5.57428e+01	0.00000e+00
5.00990e+01	2.53488e+02	2.53526e+03	9.35892e+02	3.93511e+00	1.99819e+00	5.57013e+01	0.00000e+00
5.13836e+01	2.53530e+02	2.53425e+03	9.35946e+02	3.93584e+00	1.99876e+00	5.56594e+01	0.00000e+00
5.26682e+01	2.53571e+02	2.53325e+03	9.35998e+02	3.93658e+00	1.99932e+00	5.56172e+01	0.00000e+00
5.39528e+01	2.53614e+02	2.53224e+03	9.36047e+02	3.93732e+00	1.99989e+00	5.55745e+01	0.00000e+00
5.52374e+01	2.53656e+02	2.53124e+03	9.36094e+02	3.93805e+00	2.00046e+00	5.55315e+01	0.00000e+00
5.65220e+01	2.53700e+02	2.53023e+03	9.36138e+02	3.93878e+00	2.00103e+00	5.54881e+01	0.00000e+00
5.78065e+01	2.53743e+02	2.52923e+03	9.36179e+02	3.93951e+00	2.00159e+00	5.54442e+01	0.00000e+00
5.90911e+01	2.53787e+02	2.52823e+03	9.36218e+02	3.94024e+00	2.00215e+00	5.54000e+01	0.00000e+00
6.03757e+01	2.53832e+02	2.52722e+03	9.36253e+02	3.94097e+00	2.00272e+00	5.53554e+01	0.00000e+00
6.16603e+01	2.53877e+02	2.52622e+03	9.36285e+02	3.94170e+00	2.00328e+00	5.53104e+01	0.00000e+00
6.29449e+01	2.53922e+02	2.52522e+03	9.36314e+02	3.94242e+00	2.00384e+00	5.52650e+01	0.00000e+00
6.42295e+01	2.53968e+02	2.52421e+03	9.36340e+02	3.94315e+00	2.00440e+00	5.52191e+01	0.00000e+00
6.55141e+01	2.54014e+02	2.52321e+03	9.36362e+02	3.94387e+00	2.00496e+00	5.51729e+01	0.00000e+00
6.67987e+01	2.54061e+02	2.52221e+03	9.36381e+02	3.94459e+00	2.00552e+00	5.51262e+01	0.00000e+00
6.80833e+01	2.54109e+02	2.52121e+03	9.36397e+02	3.94531e+00	2.00608e+00	5.50792e+01	0.00000e+00
6.93679e+01	2.54156e+02	2.52021e+03	9.36409e+02	3.94603e+00	2.00664e+00	5.50317e+01	0.00000e+00
7.06524e+01	2.54205e+02	2.51920e+03	9.36417e+02	3.94675e+00	2.00720e+00	5.49837e+01	0.00000e+00
7.19370e+01	2.54253e+02	2.51820e+03	9.36421e+02	3.94746e+00	2.00775e+00	5.49354e+01	0.00000e+00
7.32216e+01	2.54303e+02	2.51720e+03	9.36422e+02	3.94818e+00	2.00831e+00	5.48866e+01	0.00000e+00
7.45062e+01	2.54352e+02	2.51620e+03	9.36418e+02	3.94889e+00	2.00886e+00	5.48374e+01	0.00000e+00
7.57908e+01	2.54403e+02	2.51520e+03	9.36411e+02	3.94960e+00	2.00942e+00	5.47878e+01	0.00000e+00
7.70754e+01	2.54453e+02	2.51420e+03	9.36399e+02	3.95032e+00	2.00997e+00	5.47377e+01	0.00000e+00
7.83600e+01	2.54505e+02	2.51320e+03	9.36383e+02	3.95103e+00	2.01052e+00	5.46871e+01	0.00000e+00
7.96446e+01	2.54557e+02	2.51220e+03	9.36362e+02	3.95173e+00	2.01107e+00	5.46361e+01	0.00000e+00
8.09292e+01	2.54609e+02	2.51120e+03	9.36337e+02	3.95244e+00	2.01162e+00	5.45847e+01	0.00000e+00
8.22138e+01	2.54662e+02	2.51020e+03	9.36308e+02	3.95315e+00	2.01217e+00	5.45328e+01	0.00000e+00
8.34983e+01	2.54715e+02	2.50920e+03	9.36273e+02	3.95385e+00	2.01272e+00	5.44805e+01	0.00000e+00
8.47829e+01	2.54769e+02	2.50820e+03	9.36234e+02	3.95456e+00	2.01327e+00	5.44277e+01	0.00000e+00
8.60675e+01	2.54824e+02	2.50720e+03	9.36190e+02	3.95526e+00	2.01382e+00	5.43744e+01	0.00000e+00
8.73521e+01	2.54879e+02	2.50620e+03	9.36140e+02	3.95596e+00	2.01437e+00	5.43207e+01	0.00000e+00
8.86367e+01	2.54934e+02	2.50521e+03	9.36086e+02	3.95667e+00	2.01492e+00	5.42665e+01	0.00000e+00
8.99213e+01	2.54991e+02	2.50421e+03	9.36026e+02	3.95737e+00	2.01546e+00	5.42118e+01	0.00000e+00
9.12059e+01	2.55047e+02	2.50321e+03	9.35961e+02	3.95806e+00	2.01601e+00	5.41566e+01	0.00000e+00
9.24905e+01	2.55105e+02	2.50221e+03	9.35890e+02	3.95876e+00	2.01655e+00	5.41010e+01	0.00000e+00
9.37751e+01	2.55163e+02	2.50121e+03	9.35814e+02	3.95946e+00	2.01710e+00	5.40449e+01	0.00000e+00
9.50597e+01	2.55221e+02	2.50021e+03	9.35732e+02	3.96016e+00	2.01764e+00	5.39883e+01	0.00000e+00
9.63442e+01	2.55280e+02	2.49922e+03	9.35645e+02	3.96085e+00	2.01818e+00	5.39312e+01	0.00000e+00
9.76288e+01	2.55340e+02	2.49822e+03	9.35551e+02	3.96154e+00	2.01873e+00	5.38736e+01	0.00000e+00
9.89134e+01	2.55400e+02	2.49722e+03	9.35452e+02	3.96224e+00	2.01927e+00	5.38155e+01	0.00000e+00
1.00198e+02	2.55461e+02	2.49622e+03	9.35347e+02	3.96293e+00	2.01981e+00	5.37569e+01	0.00000e+00
1.01483e+02	2.55523e+02	2.49523e+03	9.35235e+02	3.96362e+00	2.02035e+00	5.36978e+01	0.00000e+00
1.02767e+02	2.55585e+02	2.49423e+03	9.35117e+02	3.96431e+00	2.02089e+00	5.36382e+01	0.00000e+00
1.04052e+02	2.55648e+02	2.49323e+03	9.34993e+02	3.96500e+00	2.02143e+00	5.35780e+01	0.00000e+00
1.05336e+02	2.55712e+02	2.49224e+03	9.34863e+02	3.96569e+00	2.02197e+00	5.35174e+01	0.00000e+00
1.06621e+02	2.55776e+02	2.49124e+03	9.34727e+02	3.96638e+00	2.02251e+00	5.34563e+01	0.00000e+00
1.07906e+02	2.55840e+02	2.49024e+03	9.34584e+02	3.96706e+00	2.02304e+00	5.33946e+01	0.00000e+00
1.09190e+02	2.55906e+02	2.48925e+03	9.34434e+02	3.96775e+00	2.02358e+00	5.33324e+01	0.00000e+00
1.10475e+02	2.55972e+02	2.48825e+03	9.34278e+02	3.96843e+00	2.02412e+00	5.32696e+01	0.00000e+00
1.11759e+02	2.56039e+02	2.48725e+03	9.34116e+02	3.96912e+00	2.02465e+00	5.32064e+01	0.00000e+00
1.13044e+02	2.56106e+02	2.48626e+03	9.33947e+02	3.96980e+00	2.02519e+00	5.31426e+01	0.00000e+00
1.14329e+02	2.56174e+02	2.48526e+03	9.33772e+02	3.97048e+00	2.02573e+00	5.30782e+01	0.00000e+00
1.15613e+02	2.56243e+02	2.48426e+03	9.33590e+02	3.97116e+00	2.02626e+00	5.30134e+01	0.00000e+00
1.16898e+02	2.56313e+02	2.48327e+03	9.33402e+02	3.97185e+00	2.02679e+00	5.29479e+01	0.00000e+00
1.18182e+02	2.56383e+02	2.48227e+03	9.33207e+02	3.97253e+00	2.02733e+00	5.28819e+01	0.00000e+00
1.19467e+02	2.56454e+02	2.48127e+03	9.33007e+02	3.97320e+00	2.02786e+00	5.28154e+01	0.00000e+00
1.20751e+02	2.56526e+02	2.48028e+03	9.32800e+02	3.97388e+00	2.02839e+00	5.27483e+01	0.00000e+00
1.22036e+02	2.56598e+02	2.47928e+03	9.32586e+02	3.97456e+00	2.02893e+00	5.26807e+01	0.00000e+00
1.23321e+02	2.56672e+02	2.47829e+03	9.32367e+02	3.97524e+00	2.02946e+00	5.26125e+01	0.00000e+00
1.24605e+02	2.56745e+02	2.47729e+03	9.32143e+02	3.97591e+00	2.02999e+00	5.25437e+01	0.00000e+00
1.25890e+02	2.59967e+02	2.47629e+03	9.31912e+02	3.97747e+00	2.03097e+00	4.96683e+01	0.00000e+00
1.27174e+02	2.60000e+02	2.47530e+03	9.31676e+02	3.97813e+00	2.03149e+00	4.96400e+01	0.00000e+00
1.30892e+02	2.60028e+02	2.47298e+03	1.15876e+03	1.74184e+00	0.00000e+00	0.00000e+00	4.75451e-02
1.34609e+02	2.60057e+02	2.47066e+03	1.15998e+03	1.74859e+00	0.00000e+00	0.00000e+00	4.76968e-02
1.38327e+02	2.60087e+02	2.46835e+03	1.16119e+03	1.75529e+00	0.00000e+00	0.00000e+00	4.78484e-02
1.42044e+02	2.60117e+02	2.46604e+03	1.16240e+03	1.76194e+00	0.00000e+00	0.00000e+00	4.79999e-02
1.45761e+02	2.60149e+02	2.46374e+03	1.16359e+03	1.76854e+00	0.00000e+00	0.00000e+00	4.81513e-02
1.49479e+02	2.60181e+02	2.46144e+03	1.16477e+03	1.77508e+00	0.00000e+00	0.00000e+00	4.83027e-02
1.53196e+02	2.60214e+02	2.45913e+03	1.16595e+03	1.78158e+00	0.00000e+00	0.00000e+00	4.84540e-02
1.56914e+02	2.60248e+02	2.45684e+03	1.16712e+03	1.78802e+00	0.00000e+00	0.00000e+00	4.86053e-02
1.60631e+02	2.60283e+02	2.45454e+03	1.16828e+03	1.79442e+00	0.00000e+00	0.00000e+00	4.87566e-02
1.64348e+02	2.60318e+02	2.45225e+03	1.16943e+03	1.80077e+00	0.00000e+00	0.00000e+00	4.89079e-02
1.68066e+02	2.60354e+02	2.44996e+03	1.17057e+03	1.80707e+00	0.00000e+00	0.00000e+00	4.90591e-02
1.71783e+02	2.60391e+02	2.44768e+03	1.17170e+03	1.81332e+00	0.00000e+00	0.00000e+00	4.92104e-02
1.75500e+02	2.60429e+02	2.44539e+03	1.17283e+03	1.81953e+00	0.00000e+00	0.00000e+00	4.93618e-02
1.79218e+02	2.60467e+02	2.44311e+03	1.17395e+03	1.82569e+00	0.00000e+00	0.00000e+00	4.95132e-02
1.82935e+02	2.60506e+02	2.44084e+03	1.17506e+03	1.83182e+00	0.00000e+00	0.00000e+00	4.96646e-02
1.86653e+02	2.60546e+02	2.43856e+03	1.17616e+03	1.83790e+00	0.00000e+00	0.00000e+00	4.98162e-02
1.90370e+02	2.60586e+02	2.43629e+03	1.17726e+03	1.84394e+00	0.00000e+00	0.00000e+00	4.99679e-02
1.94087e+02	2.60627e+02	2.43402e+03	1.17835e+03	1.84994e+00	0.00000e+00	0.00000e+00	5.01198e-02
1.97805e+02	2.60669e+02	2.43175e+03	1.17943e+03	1.85591e+00	0.00000e+00	0.00000e+00	5.02718e-02
2.01522e+02	2.60711e+02	2.42949e+03	1.18051e+03	1.86185e+00	0.00000e+00	0.00000e+00	5.04241e-02
2.05240e+02	2.60753e+02	2.42722e+03	1.18158e+03	1.86775e+00	0.00000e+00	0.00000e+00	5.05765e-02
2.08957e+02	2.60796e+02	2.42497e+03	1.18264e+03	1.87362e+00	0.00000e+00	0.00000e+00	5.07291e-02
2.12674e+02	2.60840e+02	2.42271e+03	1.18370e+03	1.87946e+00	0.00000e+00	0.00000e+00	5.08819e-02
2.16392e+02	2.60884e+02	2.42045e+03	1.18475e+03	1.88527e+00	0.00000e+00	0.00000e+00	5.10347e-02
2.20109e+02	2.60929e+02	2.41820e+03	1.18579e+03	1.89105e+00	0.00000e+00	0.00000e+00	5.11877e-02
2.23827e+02	2.60975e+02	2.41595e+03	1.18682e+03	1.89680e+00	0.00000e+00	0.00000e+00	5.13406e-02
2.27544e+02	2.61020e+02	2.41371e+03	1.18785e+03	1.90252e+00	0.00000e+00	0.00000e+00	5.14936e-02
2.31261e+02	2.61067e+02	2.41146e+03	1.18888e+03	1.90822e+00	0.00000e+00	0.00000e+00	5.16465e-02
2.34979e+02	2.61113e+02	2.40922e+03	1.18990e+03	1.91388e+00	0.00000e+00	0.00000e+00	5.17994e-02
2.38696e+02	2.61160e+02	2.40698e+03	1.19091e+03	1.91952e+00	0.00000e+00	0.00000e+00	5.19522e-02
2.42413e+02	2.61208e+02	2.40475e+03	1.19191e+03	1.92512e+00	0.00000e+00	0.00000e+00	5.21049e-02
2.46131e+02	2.61256e+02	2.40251e+03	1.19291e+03	1.93069e+00	0.00000e+00	0.00000e+00	5.22575e-02
2.49848e+02	2.61304e+02	2.40028e+03	1.19391e+03	1.93622e+00	0.00000e+00	0.00000e+00	5.24099e-02
2.53566e+02	2.61353e+02	2.39805e+03	1.19490e+03	1.94171e+00	0.00000e+00	0.00000e+00	5.25622e-02
2.57283e+02	2.61402e+02	2.39582e+03	1.19588e+03	1.94716e+00	0.00000e+00	0.00000e+00	5.27143e-02
2.61000e+02	2.61452e+02	2.39360e+03	1.19686e+03	1.95255e+00	0.00000e+00	0.00000e+00	5.28662e-02
2.64718e+02	2.61502e+02	2.39138e+03	1.19783e+03	1.95790e+00	0.00000e+00	0.00000e+00	5.30179e-02
2.68435e+02	2.61552e+02	2.38916e+03	1.19880e+03	1.96319e+00	0.00000e+00	0.00000e+00	5.31693e-02
2.72153e+02	2.61603e+02	2.38694e+03	1.19976e+03	1.96843e+00	0.00000e+00	0.00000e+00	5.33206e-02
2.75870e+02	2.61654e+02	2.38473e+03	1.20072e+03	1.97362e+00	0.00000e+00	0.00000e+00	5.34716e-02
2.79587e+02	2.61706e+02	2.38251e+03	1.20167e+03	1.97876e+00	0.00000e+00	0.00000e+00	5.36224e-02
2.83305e+02	2.61758e+02	2.38030e+03	1.20261e+03	1.98387e+00	0.00000e+00	0.00000e+00	5.37730e-02
2.87022e+02	2.61810e+02	2.37810e+03	1.20356e+03	1.98893e+00	0.00000e+00	0.00000e+00	5.39233e-02
2.90740e+02	2.61862e+02	2.37589e+03	1.20449e+03	1.99397e+00	0.00000e+00	0.00000e+00	5.40733e-02
2.94457e+02	2.61915e+02	2.37369e+03	1.20542e+03	1.99897e+00	0.00000e+00	0.00000e+00	5.42232e-02
2.98174e+02	2.61968e+02	2.37148e+03	1.20635e+03	2.00395e+00	0.00000e+00	0.00000e+00	5.43727e-02
3.01892e+02	2.62022e+02	2.36929e+03	1.20728e+03	2.00890e+00	0.00000e+00	0.00000e+00	5.45221e-02
3.05609e+02	2.62076e+02	2.36709e+03	1.20819e+03	2.01382e+00	0.00000e+00	0.00000e+00	5.46712e-02
3.09327e+02	2.62130e+02	2.36490e+03	1.20911e+03	2.01873e+00	0.00000e+00	0.00000e+00	5.48200e-02
3.13044e+02	2.62185e+02	2.36270e+03	1.21002e+03	2.02361e+00	0.00000e+00	0.00000e+00	5.49686e-02
3.16761e+02	2.62239e+02	2.36051e+03	1.21092e+03	2.02848e+00	0.00000e+00	0.00000e+00	5.51168e-02
3.20479e+02	2.62295e+02	2.35833e+03	1.21183e+03	2.03333e+00	0.00000e+00	0.00000e+00	5.52647e-02
3.24196e+02	2.62350e+02	2.35614e+03	1.21272e+03	2.03817e+00	0.00000e+00	0.00000e+00	5.54122e-02
3.27913e+02	2.62406e+02	2.35396e+03	1.21361e+03	2.04299e+00	0.00000e+00	0.00000e+00	5.55593e-02
3.31631e+02	2.62462e+02	2.35178e+03	1.21450e+03	2.04780e+00	0.00000e+00	0.00000e+00	5.57060e-02
3.35348e+02	2.62518e+02	2.34960e+03	1.21539e+03	2.05260e+00	0.00000e+00	0.00000e+00	5.58523e-02
3.39066e+02	2.62575e+02	2.34742e+03	1.21627e+03	2.05738e+00	0.00000e+00	0.00000e+00	5.59980e-02
3.42783e+02	2.62632e+02	2.34524e+03	1.21714e+03	2.06215e+00	0.00000e+00	0.00000e+00	5.61433e-02
3.46500e+02	2.62689e+02	2.34307e+03	1.21801e+03	2.06692e+00	0.00000e+00	0.00000e+00	5.62880e-02
3.50218e+02	2.62747e+02	2.34090e+03	1.21888e+03	2.07167e+00	0.00000e+00	0.00000e+00	5.64322e-02
3.53935e+02	2.62805e+02	2.33873e+03	1.21975e+03	2.07640e+00	0.00000e+00	0.00000e+00	5.65758e-02
3.57653e+02	2.62863e+02	2.33657e+03	1.22061e+03	2.08113e+00	0.00000e+00	0.00000e+00	5.67187e-02
3.61370e+02	2.62922e+02	2.33440e+03	1.22146e+03	2.08584e+00	0.00000e+00	0.00000e+00	5.68611e-02
3.65087e+02	2.62980e+02	2.33224e+03	1.22232e+03	2.09055e+00	0.00000e+00	0.00000e+00	5.70027e-02
3.68805e+02	2.63039e+02	2.33008e+03	1.22316e+03	2.09524e+00	0.00000e+00	0.00000e+00	5.71436e-02
3.72522e+02	2.63099e+02	2.32792e+03	1.22401e+03	2.09991e+00	0.00000e+00	0.00000e+00	5.72838e-02
3.76240e+02	2.63158e+02	2.32577e+03	1.22485e+03	2.10458e+00	0.00000e+00	0.00000e+00	5.74232e-02
3.79957e+02	2.63218e+02	2.32362e+03	1.22569e+03	2.10923e+00	0.00000e+00	0.00000e+00	5.75618e-02
3.83674e+02	2.63278e+02	2.32146e+03	1.22652e+03	2.11386e+00	0.00000e+00	0.00000e+00	5.76996e-02
3.87392e+02	2.63339e+02	2.31931e+03	1.22735e+03	2.11849e+00	0.00000e+00	0.00000e+00	5.78365e-02
3.91109e+02	2.63399e+02	2.31717e+03	1.22818e+03	2.12310e+00	0.00000e+00	0.00000e+00	5.79724e-02
3.94826e+02	2.63460e+02	2.31502e+03	1.22900e+03	2.12770e+00	0.00000e+00	0.00000e+00	5.81074e-02
3.98544e+02	2.63522e+02	2.31288e+03	1.22982e+03	2.13229e+00	0.00000e+00	0.00000e+00	5.82414e-02
4.02261e+02	2.63583e+02	2.31074e+03	1.23063e+03	2.13686e+00	0.00000e+00	0.00000e+00	5.83744e-02
4.05979e+02	2.63645e+02	2.30860e+03	1.23145e+03	2.14143e+00	0.00000e+00	0.00000e+00	5.85063e-02
4.09696e+02	2.63706e+02	2.30646e+03	1.23225e+03	2.14598e+00	0.00000e+00	0.00000e+00	5.86372e-02
4.13413e+02	2.63769e+02	2.30433e+03	1.23306e+03	2.15052e+00	0.00000e+00	0.00000e+00	5.87672e-02
4.17131e+02	2.63831e+02	2.30219e+03	1.23386e+03	2.15505e+00	0.00000e+00	0.00000e+00	5.88961e-02
4.20848e+02	2.63893e+02	2.30006e+03	1.23466e+03	2.15957e+00	0.00000e+00	0.00000e+00	5.90240e-02
4.24566e+02	2.63956e+02	2.29793e+03	1.23545e+03	2.16408e+00	0.00000e+00	0.00000e+00	5.91510e-02
4.28283e+02	2.64019e+02	2.29581e+03	1.23625e+03	2.16858e+00	0.00000e+00	0.00000e+00	5.92769e-02
4.32000e+02	2.64082e+02	2.29368e+03	1.23703e+03	2.17307e+00	0.00000e+00	0.00000e+00	5.94020e-02
4.35718e+02	2.64146e+02	2.29156e+03	1.23782e+03	2.17755e+00	0.00000e+00	0.00000e+00	5.95261e-02
4.39435e+02	2.64209e+02	2.28944e+03	1.23860e+03	2.18202e+00	0.00000e+00	0.00000e+00	5.96494e-02
4.43153e+02	2.64273e+02	2.28732e+03	1.23938e+03	2.18648e+00	0.00000e+00	0.00000e+00	5.97717e-02
4.46870e+02	2.64337e+02	2.28520e+03	1.24016e+03	2.19094e+00	0.00000e+00	0.00000e+00	5.98931e-02
4.50587e+02	2.64401e+02	2.28308e+03	1.24093e+03	2.19538e+00	0.00000e+00	0.00000e+00	6.00137e-02
4.54305e+02	2.64466e+02	2.28097e+03	1.24170e+03	2.19981e+00	0.00000e+00	0.00000e+00	6.01335e-02
4.58022e+02	2.64530e+02	2.27886e+03	1.24246e+03	2.20423e+00	0.00000e+00	0.00000e+00	6.02525e-02
4.61740e+02	2.64595e+02	2.27675e+03	1.24323e+03	2.20864e+00	0.00000e+00	0.00000e+00	6.03706e-02
4.65457e+02	2.64660e+02	2.27464e+03	1.24399e+03	2.21303e+00	0.00000e+00	0.00000e+00	6.04880e-02
4.69174e+02	2.64725e+02	2.27254e+03	1.24475e+03	2.21740e+00	0.00000e+00	0.00000e+00	6.06047e-02
4.72892e+02	2.64790e+02	2.27043e+03	1.24550e+03	2.22175e+00	0.00000e+00	0.00000e+00	6.07206e-02
4.76609e+02	2.64855e+02	2.26833e+03	1.24625e+03	2.22608e+00	0.00000e+00	0.00000e+00	6.08358e-02
4.80326e+02	2.64920e+02	2.26623e+03	1.24700e+03	2.23039e+00	0.00000e+00	0.00000e+00	6.09504e-02
4.84044e+02	2.64986e+02	2.26413e+03	1.24774e+03	2.23468e+00	0.00000e+00	0.00000e+00	6.10643e-02
4.87761e+02	2.65052e+02	2.26204e+03	1.24849e+03	2.23895e+00	0.00000e+00	0.00000e+00	6.11776e-02
4.91479e+02	2.65118e+02	2.25994e+03	1.24923e+03	2.24320e+00	0.00000e+00	0.00000e+00	6.12903e-02
4.95196e+02	2.65184e+02	2.25785e+03	1.24996e+03	2.24744e+00	0.00000e+00	0.00000e+00	6.14025e-02
4.98913e+02	2.65250e+02	2.25576e+03	1.25070e+03	2.25167e+00	0.00000e+00	0.00000e+00	6.15141e-02
5.02631e+02	2.65316e+02	2.25367e+03	1.25143e+03	2.25590e+00	0.00000e+00	0.00000e+00	6.16253e-02
5.06348e+02	2.65382e+02	2.25158e+03	1.25216e+03	2.26012e+00	0.00000e+00	0.00000e+00	6.17359e-02
5.10066e+02	2.65449e+02	2.24950e+03	1.25288e+03	2.26433e+00	0.00000e+00	0.00000e+00	6.18460e-02
5.13783e+02	2.65516e+02	2.24742e+03	1.25361e+03	2.26854e+00	0.00000e+00	0.00000e+00	6.19554e-02
5.17500e+02	2.65582e+02	2.24533e+03	1.25433e+03	2.27274e+00	0.00000e+00	0.00000e+00	6.20643e-02
5.21218e+02	2.65649e+02	2.24325e+03	1.25505e+03	2.27694e+00	0.00000e+00	0.00000e+00	6.21725e-02
5.24935e+02	2.65716e+02	2.24118e+03	1.25576e+03	2.28113e+00	0.00000e+00	0.00000e+00	6.22800e-02
