P (MPa)		T (K)		r (km)		rho (kg m-3)	VP (km s-1)	VS (km s-1)	QS/gamma	KS (GPa)	GS (GPa)	k for 0.01 mol/kg MgSO4 (S m-1)	
0.00000e+00	7.50000e+01	2.52000e+02	9.32829e+02	3.87708e+00	1.96108e+00	4.53908e+06	9.24000e+00	3.58800e+00	0.00000e+00
5.50924e-02	8.02488e+01	2.51480e+02	9.32829e+02	3.87740e+00	1.96125e+00	1.60358e+06	9.24018e+00	3.58812e+00	0.00000e+00
1.10185e-01	8.58648e+01	2.50960e+02	9.32678e+02	3.87776e+00	1.96144e+00	6.06415e+05	9.24036e+00	3.58824e+00	0.00000e+00
1.65277e-01	9.18740e+01	2.50440e+02	9.32503e+02	3.87817e+00	1.96165e+00	2.44383e+05	9.24055e+00	3.58835e+00	0.00000e+00
2.20370e-01	9.83036e+01	2.49920e+02	9.32299e+02	3.87864e+00	1.96190e+00	1.04517e+05	9.24073e+00	3.58847e+00	0.00000e+00
2.75462e-01	1.05183e+02	2.49401e+02	9.32060e+02	3.87918e+00	1.96219e+00	4.72534e+04	9.24091e+00	3.58859e+00	0.00000e+00
3.30555e-01	1.12544e+02	2.48882e+02	9.31779e+02	3.87982e+00	1.96251e+00	2.25023e+04	9.24109e+00	3.58871e+00	0.00000e+00
3.85647e-01	1.20421e+02	2.48362e+02	9.31447e+02	3.88055e+00	1.96290e+00	1.12485e+04	9.24127e+00	3.58883e+00	0.00000e+00
4.40739e-01	1.28848e+02	2.47844e+02	9.31054e+02	3.88142e+00	1.96334e+00	5.88379e+03	9.24145e+00	3.58895e+00	0.00000e+00
4.95832e-01	1.37865e+02	2.47325e+02	9.30587e+02	3.88244e+00	1.96387e+00	3.21091e+03	9.24164e+00	3.58906e+00	0.00000e+00
5.50924e-01	1.47514e+02	2.46806e+02	9.30030e+02	3.88365e+00	1.96449e+00	1.82307e+03	9.24182e+00	3.58918e+00	0.00000e+00
6.06017e-01	1.57837e+02	2.46287e+02	9.29364e+02	3.88509e+00	1.96522e+00	1.07413e+03	9.24200e+00	3.58930e+00	0.00000e+00
6.61109e-01	1.68883e+02	2.45768e+02	9.28568e+02	3.88680e+00	1.96610e+00	6.55145e+02	9.24218e+00	3.58942e+00	0.00000e+00
7.16202e-01	1.80702e+02	2.45250e+02	9.27615e+02	3.88884e+00	1.96714e+00	4.12726e+02	9.24236e+00	3.58954e+00	0.00000e+00
7.71294e-01	1.93348e+02	2.44731e+02	9.26479e+02	3.89127e+00	1.96838e+00	2.67985e+02	9.24254e+00	3.58966e+00	0.00000e+00
8.26386e-01	2.06879e+02	2.44211e+02	9.25132e+02	3.89415e+00	1.96984e+00	1.78990e+02	9.24273e+00	3.58977e+00	0.00000e+00
8.81479e-01	2.21358e+02	2.43692e+02	9.23549e+02	3.89754e+00	1.97156e+00	1.22746e+02	9.24291e+00	3.58989e+00	0.00000e+00
9.36571e-01	2.36849e+02	2.43171e+02	9.21716e+02	3.90146e+00	1.97356e+00	8.62790e+01	9.24309e+00	3.59001e+00	0.00000e+00
9.91664e-01	2.53424e+02	2.42651e+02	9.19635e+02	3.90592e+00	1.97582e+00	6.20604e+01	9.24327e+00	3.59013e+00	0.00000e+00
1.04676e+00	2.71160e+02	2.42129e+02	9.17335e+02	3.91086e+00	1.97833e+00	4.56125e+01	9.24345e+00	3.59025e+00	0.00000e+00
1.24572e+00	2.71160e+02	2.40447e+02	1.02874e+03	1.44150e+00	0.00000e+00	0.00000e+00	2.13765e+00	0.00000e+00	2.73953e+00
1.44468e+00	2.71161e+02	2.38766e+02	1.02884e+03	1.44182e+00	0.00000e+00	0.00000e+00	2.13880e+00	0.00000e+00	2.74048e+00
1.64364e+00	2.71161e+02	2.37089e+02	1.02893e+03	1.44215e+00	0.00000e+00	0.00000e+00	2.13996e+00	0.00000e+00	2.74144e+00
1.84260e+00	2.71162e+02	2.35414e+02	1.02903e+03	1.44247e+00	0.00000e+00	0.00000e+00	2.14111e+00	0.00000e+00	2.74240e+00
2.04156e+00	2.71162e+02	2.33742e+02	1.02912e+03	1.44279e+00	0.00000e+00	0.00000e+00	2.14226e+00	0.00000e+00	2.74336e+00
2.24052e+00	2.71162e+02	2.32074e+02	1.02922e+03	1.44311e+00	0.00000e+00	0.00000e+00	2.14342e+00	0.00000e+00	2.74432e+00
2.43948e+00	2.71163e+02	2.30408e+02	1.02931e+03	1.44343e+00	0.00000e+00	0.00000e+00	2.14457e+00	0.00000e+00	2.74527e+00
2.63844e+00	2.71163e+02	2.28747e+02	1.02941e+03	1.44375e+00	0.00000e+00	0.00000e+00	2.14573e+00	0.00000e+00	2.74623e+00
2.83740e+00	2.71164e+02	2.27089e+02	1.02950e+03	1.44408e+00	0.00000e+00	0.00000e+00	2.14689e+00	0.00000e+00	2.74718e+00
3.03637e+00	2.71164e+02	2.25434e+02	1.02960e+03	1.44440e+00	0.00000e+00	0.00000e+00	2.14804e+00	0.00000e+00	2.74814e+00
3.23533e+00	2.71165e+02	2.23784e+02	1.02970e+03	1.44472e+00	0.00000e+00	0.00000e+00	2.14920e+00	0.00000e+00	2.74909e+00
3.43429e+00	2.71165e+02	2.22139e+02	1.02979e+03	1.44505e+00	0.00000e+00	0.00000e+00	2.15036e+00	0.00000e+00	2.75004e+00
3.63325e+00	2.71166e+02	2.20498e+02	1.02989e+03	1.44537e+00	0.00000e+00	0.00000e+00	2.15152e+00	0.00000e+00	2.75100e+00
3.83221e+00	2.71166e+02	2.18861e+02	1.02998e+03	1.44569e+00	0.00000e+00	0.00000e+00	2.15269e+00	0.00000e+00	2.75195e+00
4.03117e+00	2.71167e+02	2.17230e+02	1.03008e+03	1.44602e+00	0.00000e+00	0.00000e+00	2.15385e+00	0.00000e+00	2.75290e+00
4.23013e+00	2.71167e+02	2.15604e+02	1.03017e+03	1.44634e+00	0.00000e+00	0.00000e+00	2.15501e+00	0.00000e+00	2.75385e+00
4.42909e+00	2.71168e+02	2.13983e+02	1.03027e+03	1.44666e+00	0.00000e+00	0.00000e+00	2.15618e+00	0.00000e+00	2.75480e+00
4.62805e+00	2.71168e+02	2.12368e+02	1.03036e+03	1.44699e+00	0.00000e+00	0.00000e+00	2.15734e+00	0.00000e+00	2.75575e+00
4.82701e+00	2.71169e+02	2.10758e+02	1.03046e+03	1.44731e+00	0.00000e+00	0.00000e+00	2.15851e+00	0.00000e+00	2.75670e+00
5.02598e+00	2.71169e+02	2.09155e+02	1.03055e+03	1.44764e+00	0.00000e+00	0.00000e+00	2.15968e+00	0.00000e+00	2.75765e+00
5.22494e+00	2.71170e+02	2.07558e+02	1.03065e+03	1.44796e+00	0.00000e+00	0.00000e+00	2.16084e+00	0.00000e+00	2.75860e+00
5.42390e+00	2.71170e+02	2.05967e+02	1.03074e+03	1.44829e+00	0.00000e+00	0.00000e+00	2.16201e+00	0.00000e+00	2.75954e+00
5.62286e+00	2.71171e+02	2.04383e+02	1.03084e+03	1.44861e+00	0.00000e+00	0.00000e+00	2.16318e+00	0.00000e+00	2.76049e+00
5.82182e+00	2.71172e+02	2.02805e+02	1.03093e+03	1.44894e+00	0.00000e+00	0.00000e+00	2.16435e+00	0.00000e+00	2.76144e+00
6.02078e+00	2.71172e+02	2.01235e+02	1.03103e+03	1.44926e+00	0.00000e+00	0.00000e+00	2.16552e+00	0.00000e+00	2.76238e+00
6.21974e+00	2.71173e+02	1.99672e+02	1.03112e+03	1.44959e+00	0.00000e+00	0.00000e+00	2.16670e+00	0.00000e+00	2.76333e+00
6.41870e+00	2.71173e+02	1.98116e+02	1.03122e+03	1.44991e+00	0.00000e+00	0.00000e+00	2.16787e+00	0.00000e+00	2.76427e+00
6.61766e+00	2.71174e+02	1.96568e+02	1.03131e+03	1.45024e+00	0.00000e+00	0.00000e+00	2.16904e+00	0.00000e+00	2.76521e+00
6.81662e+00	2.71175e+02	1.95028e+02	1.03140e+03	1.45057e+00	0.00000e+00	0.00000e+00	2.17022e+00	0.00000e+00	2.76616e+00
7.01559e+00	2.71175e+02	1.93495e+02	1.03150e+03	1.45089e+00	0.00000e+00	0.00000e+00	2.17140e+00	0.00000e+00	2.76710e+00
7.21455e+00	2.71176e+02	1.91971e+02	1.03159e+03	1.45122e+00	0.00000e+00	0.00000e+00	2.17257e+00	0.00000e+00	2.76804e+00
7.41351e+00	2.71176e+02	1.90456e+02	1.03169e+03	1.45155e+00	0.00000e+00	0.00000e+00	2.17375e+00	0.00000e+00	2.76898e+00
7.61247e+00	2.71177e+02	1.88949e+02	1.03178e+03	1.45187e+00	0.00000e+00	0.00000e+00	2.17493e+00	0.00000e+00	2.76992e+00
7.81143e+00	2.71178e+02	1.87450e+02	1.86479e+03	2.02416e+00	-1.65223e+00	1.41707e+13	1.22500e+02	4.88172e+01	0.00000e+00
8.85984e+00	2.92013e+02	1.85136e+02	1.90642e+03	2.06281e+00	-1.65821e+00	1.57155e+12	1.19742e+02	5.07077e+01	0.00000e+00
9.90826e+00	3.12589e+02	1.82822e+02	1.93601e+03	2.10154e+00	-1.61020e+00	2.38833e+11	1.21446e+02	5.04001e+01	0.00000e+00
1.09479e+01	3.32906e+02	1.80508e+02	1.98120e+03	2.14013e+00	-1.58550e+00	4.67093e+10	1.19934e+02	5.12149e+01	0.00000e+00
1.19924e+01	3.52964e+02	1.78193e+02	2.01599e+03	2.17941e+00	-1.55738e+00	1.12148e+10	1.18864e+02	5.19023e+01	0.00000e+00
1.30345e+01	3.72764e+02	1.75879e+02	2.05077e+03	2.22041e+00	-1.59295e+00	3.18849e+09	1.13103e+02	5.51319e+01	0.00000e+00
1.40749e+01	3.92304e+02	1.73565e+02	2.05764e+03	2.25927e+00	-1.54153e+00	1.04372e+09	1.10702e+02	5.47253e+01	0.00000e+00
1.50953e+01	4.11586e+02	1.71251e+02	2.07528e+03	2.29655e+00	-1.47255e+00	3.84719e+08	1.08344e+02	5.31613e+01	0.00000e+00
1.61051e+01	4.30610e+02	1.68937e+02	2.09345e+03	2.33644e+00	-1.44042e+00	1.56879e+08	1.08291e+02	5.36817e+01	0.00000e+00
1.71061e+01	4.49374e+02	1.66622e+02	2.12421e+03	2.37637e+00	-1.40768e+00	6.97591e+07	1.08246e+02	5.42064e+01	0.00000e+00
1.81073e+01	4.67879e+02	1.64308e+02	2.15463e+03	2.41671e+00	-1.37419e+00	3.34313e+07	1.08195e+02	5.47278e+01	0.00000e+00
1.91090e+01	4.86126e+02	1.61994e+02	2.18436e+03	2.45746e+00	-1.33974e+00	1.71000e+07	1.08132e+02	5.52411e+01	0.00000e+00
2.01112e+01	5.04114e+02	1.59680e+02	2.21348e+03	2.49853e+00	-1.30379e+00	9.25998e+06	1.08053e+02	5.57331e+01	0.00000e+00
2.11139e+01	5.21843e+02	1.57366e+02	2.24229e+03	2.54011e+00	-1.26801e+00	5.27274e+06	1.07977e+02	5.62434e+01	0.00000e+00
2.21172e+01	5.39313e+02	1.55051e+02	2.27001e+03	2.58209e+00	-1.23145e+00	3.13887e+06	1.07894e+02	5.67508e+01	0.00000e+00
2.31210e+01	5.56524e+02	1.52737e+02	2.29713e+03	2.62444e+00	-1.19396e+00	1.94395e+06	1.07799e+02	5.72555e+01	0.00000e+00
2.41252e+01	5.73477e+02	1.50423e+02	2.32377e+03	2.66715e+00	-1.15560e+00	1.24723e+06	1.07697e+02	5.77514e+01	0.00000e+00
2.51298e+01	5.90171e+02	1.48109e+02	2.34983e+03	2.71016e+00	-1.11595e+00	8.26002e+05	1.07583e+02	5.82245e+01	0.00000e+00
2.61350e+01	6.06606e+02	1.45795e+02	2.37549e+03	2.75368e+00	-1.07660e+00	5.62887e+05	1.07470e+02	5.87343e+01	0.00000e+00
2.71407e+01	6.22782e+02	1.43480e+02	2.40026e+03	2.79746e+00	-1.03578e+00	3.93620e+05	1.07345e+02	5.92162e+01	0.00000e+00
2.81468e+01	6.38699e+02	1.41166e+02	2.42474e+03	2.84149e+00	-9.93748e-01	2.81779e+05	1.07209e+02	5.96802e+01	0.00000e+00
2.91534e+01	6.54357e+02	1.38852e+02	2.44892e+03	2.88597e+00	-9.51655e-01	2.06063e+05	1.07074e+02	6.01593e+01	0.00000e+00
3.01607e+01	6.69757e+02	1.36538e+02	2.47222e+03	2.93094e+00	-9.09646e-01	1.53655e+05	1.06941e+02	6.06716e+01	0.00000e+00
3.11684e+01	6.84898e+02	1.34224e+02	2.49478e+03	2.97591e+00	-8.65232e-01	1.16635e+05	1.06784e+02	6.11129e+01	0.00000e+00
3.21765e+01	6.99780e+02	1.31909e+02	2.51742e+03	3.02141e+00	-8.21327e-01	8.99949e+04	1.06632e+02	6.16066e+01	0.00000e+00
3.31852e+01	7.14403e+02	1.29595e+02	2.53924e+03	3.06723e+00	-7.76830e-01	7.04925e+04	1.06475e+02	6.21065e+01	0.00000e+00
3.41943e+01	7.28768e+02	1.27281e+02	2.56060e+03	3.11315e+00	-7.30632e-01	5.59885e+04	1.06314e+02	6.25423e+01	0.00000e+00
3.52040e+01	7.42873e+02	1.24967e+02	2.58161e+03	3.15950e+00	-6.84540e-01	4.50433e+04	1.06143e+02	6.30207e+01	0.00000e+00
3.62141e+01	7.56720e+02	1.22653e+02	2.60197e+03	3.20405e+00	-6.28577e-01	3.66716e+04	1.05851e+02	6.28699e+01	0.00000e+00
3.72247e+01	7.70308e+02	1.20338e+02	2.61998e+03	3.24862e+00	-5.72134e-01	3.01875e+04	1.05558e+02	6.26965e+01	0.00000e+00
3.82348e+01	7.83637e+02	1.18024e+02	2.63754e+03	3.29342e+00	-5.16385e-01	2.51068e+04	1.05268e+02	6.25799e+01	0.00000e+00
3.92446e+01	7.96707e+02	1.15710e+02	2.65467e+03	3.33792e+00	-4.59348e-01	2.10823e+04	1.04992e+02	6.23653e+01	0.00000e+00
4.02539e+01	8.09519e+02	1.13396e+02	2.67138e+03	3.38285e+00	-4.03733e-01	1.78621e+04	1.04715e+02	6.22588e+01	0.00000e+00
4.12630e+01	8.22071e+02	1.11082e+02	2.68757e+03	3.42734e+00	-3.46681e-01	1.52611e+04	1.04442e+02	6.20444e+01	0.00000e+00
4.22716e+01	8.34365e+02	1.08767e+02	2.70347e+03	3.47262e+00	-2.92094e-01	1.31417e+04	1.04164e+02	6.20269e+01	0.00000e+00
4.32800e+01	8.46400e+02	1.06453e+02	2.71876e+03	3.51739e+00	-2.35981e-01	1.14003e+04	1.03902e+02	6.18774e+01	0.00000e+00
4.42879e+01	8.58176e+02	1.04139e+02	2.73371e+03	3.56193e+00	-1.79491e-01	9.95857e+03	1.03649e+02	6.16869e+01	0.00000e+00
4.52955e+01	8.69694e+02	1.01825e+02	2.74831e+03	3.60698e+00	-1.24440e-01	8.75616e+03	1.03382e+02	6.16277e+01	0.00000e+00
4.63028e+01	8.80952e+02	9.95106e+01	2.76243e+03	3.65148e+00	-6.83482e-02	7.74653e+03	1.03127e+02	6.14754e+01	0.00000e+00
4.73097e+01	8.91952e+02	9.71964e+01	2.77651e+03	3.69611e+00	-1.28230e-02	6.89334e+03	1.02889e+02	6.13393e+01	0.00000e+00
4.83163e+01	9.02693e+02	9.48822e+01	2.78988e+03	3.74042e+00	4.30071e-02	6.16802e+03	1.02646e+02	6.11615e+01	0.00000e+00
4.93226e+01	9.13175e+02	9.25680e+01	2.80285e+03	3.78527e+00	9.75631e-02	5.54791e+03	1.02398e+02	6.11272e+01	0.00000e+00
5.03286e+01	9.23399e+02	9.02538e+01	2.81572e+03	3.82919e+00	1.53275e-01	5.01493e+03	1.02180e+02	6.09144e+01	0.00000e+00
5.13342e+01	9.33363e+02	8.79396e+01	2.82809e+03	3.87374e+00	2.07653e-01	4.55454e+03	1.01942e+02	6.08660e+01	0.00000e+00
5.23396e+01	9.43069e+02	8.56254e+01	2.84027e+03	3.91813e+00	2.61957e-01	4.15498e+03	1.01711e+02	6.08093e+01	0.00000e+00
5.33446e+01	9.52515e+02	8.33112e+01	2.85218e+03	3.96216e+00	3.16312e-01	3.80669e+03	1.01503e+02	6.07014e+01	0.00000e+00
5.43494e+01	9.61704e+02	8.09970e+01	2.86374e+03	4.00545e+00	3.71091e-01	3.50182e+03	1.01284e+02	6.05183e+01	0.00000e+00
5.53539e+01	9.70633e+02	7.86828e+01	2.87508e+03	4.04914e+00	4.24933e-01	3.23392e+03	1.01077e+02	6.04082e+01	0.00000e+00
5.63582e+01	9.79303e+02	7.63686e+01	2.88585e+03	4.09276e+00	4.78423e-01	2.99764e+03	1.00875e+02	6.03194e+01	0.00000e+00
5.73622e+01	9.87715e+02	7.40544e+01	2.89640e+03	4.13601e+00	5.31803e-01	2.78854e+03	1.00678e+02	6.02133e+01	0.00000e+00
5.83659e+01	9.95867e+02	7.17402e+01	2.90682e+03	4.17894e+00	5.84983e-01	2.60289e+03	1.00480e+02	6.00986e+01	0.00000e+00
5.93693e+01	1.00376e+03	6.94260e+01	2.91701e+03	4.22143e+00	6.38023e-01	2.43759e+03	1.00269e+02	5.99671e+01	0.00000e+00
6.03725e+01	1.01140e+03	6.71118e+01	2.92688e+03	4.26457e+00	6.90241e-01	2.28999e+03	1.00072e+02	5.99560e+01	0.00000e+00
6.13755e+01	1.01877e+03	6.47976e+01	2.93666e+03	4.30673e+00	7.42337e-01	2.15786e+03	9.99097e+01	5.98073e+01	0.00000e+00
6.23782e+01	1.02589e+03	6.24834e+01	2.94585e+03	4.34882e+00	7.93981e-01	2.03930e+03	9.97541e+01	5.96879e+01	0.00000e+00
6.33807e+01	1.03275e+03	6.01692e+01	2.95490e+03	4.39112e+00	8.45186e-01	1.93270e+03	9.95949e+01	5.96422e+01	0.00000e+00
6.43830e+01	1.03935e+03	5.78550e+01	2.96392e+03	4.43330e+00	8.96064e-01	1.83667e+03	9.94332e+01	5.96184e+01	0.00000e+00
6.53850e+01	1.04569e+03	5.55408e+01	2.97268e+03	4.47480e+00	9.46679e-01	1.75001e+03	9.92759e+01	5.95431e+01	0.00000e+00
6.63869e+01	1.05177e+03	5.32266e+01	2.98116e+03	4.51619e+00	9.96892e-01	1.67170e+03	9.91266e+01	5.94886e+01	0.00000e+00
6.73885e+01	1.05760e+03	5.09124e+01	2.98950e+03	4.55775e+00	1.04671e+00	1.60085e+03	9.89880e+01	5.94896e+01	0.00000e+00
6.83900e+01	1.06316e+03	4.85982e+01	2.99783e+03	4.59815e+00	1.09611e+00	1.53669e+03	9.88534e+01	5.93792e+01	0.00000e+00
6.93914e+01	1.06847e+03	4.62840e+01	3.00562e+03	4.63811e+00	1.14504e+00	1.47855e+03	9.87238e+01	5.92544e+01	0.00000e+00
7.03926e+01	1.07351e+03	4.39698e+01	3.01315e+03	4.67846e+00	1.19367e+00	1.42584e+03	9.85902e+01	5.92190e+01	0.00000e+00
7.13936e+01	1.07830e+03	4.16556e+01	3.02064e+03	4.71856e+00	1.24191e+00	1.37805e+03	9.84643e+01	5.91924e+01	0.00000e+00
7.23943e+01	1.08283e+03	3.93414e+01	3.02805e+03	4.75833e+00	1.28974e+00	1.33475e+03	9.83494e+01	5.91687e+01	0.00000e+00
7.33950e+01	1.08710e+03	3.70272e+01	3.03546e+03	4.79776e+00	1.33708e+00	1.29554e+03	9.82443e+01	5.91354e+01	0.00000e+00
7.43956e+01	1.09111e+03	3.47130e+01	3.04261e+03	4.83681e+00	1.38383e+00	1.26007e+03	9.81528e+01	5.90809e+01	0.00000e+00
7.53961e+01	1.09487e+03	3.23988e+01	3.04938e+03	4.87556e+00	1.43013e+00	1.22806e+03	9.80674e+01	5.90302e+01	0.00000e+00
7.63964e+01	1.09836e+03	3.00846e+01	3.05600e+03	4.91353e+00	1.47593e+00	1.19924e+03	9.79753e+01	5.89498e+01	0.00000e+00
7.73966e+01	1.10159e+03	2.77704e+01	3.06247e+03	4.95119e+00	1.52124e+00	1.17337e+03	9.78897e+01	5.88747e+01	0.00000e+00
7.83967e+01	1.10457e+03	2.54562e+01	3.06882e+03	4.98866e+00	1.56608e+00	1.15027e+03	9.78129e+01	5.88134e+01	0.00000e+00
7.93966e+01	1.10729e+03	2.31420e+01	3.07505e+03	5.02648e+00	1.61067e+00	1.12974e+03	9.77529e+01	5.88102e+01	0.00000e+00
8.03964e+01	1.10975e+03	2.08278e+01	3.08124e+03	5.06395e+00	1.65478e+00	1.11165e+03	9.76987e+01	5.88052e+01	0.00000e+00
8.13962e+01	1.11195e+03	1.85136e+01	3.08730e+03	5.10106e+00	1.69841e+00	1.09585e+03	9.76505e+01	5.87988e+01	0.00000e+00
8.23959e+01	1.11389e+03	1.61994e+01	3.09321e+03	5.13778e+00	1.74155e+00	1.08224e+03	9.76085e+01	5.87889e+01	0.00000e+00
8.33956e+01	1.11557e+03	1.38852e+01	3.09900e+03	5.17405e+00	1.78415e+00	1.07072e+03	9.75732e+01	5.87719e+01	0.00000e+00
8.43952e+01	1.11699e+03	1.15710e+01	3.10470e+03	5.21001e+00	1.82627e+00	1.06122e+03	9.75442e+01	5.87580e+01	0.00000e+00
8.53948e+01	1.11816e+03	9.25680e+00	3.11027e+03	5.24566e+00	1.86791e+00	1.05365e+03	9.75218e+01	5.87471e+01	0.00000e+00
8.63943e+01	1.11906e+03	6.94260e+00	3.11573e+03	5.28101e+00	1.90908e+00	1.04798e+03	9.75058e+01	5.87392e+01	0.00000e+00
8.73939e+01	1.11971e+03	4.62840e+00	3.12106e+03	5.31604e+00	1.94976e+00	1.04417e+03	9.74963e+01	5.87343e+01	0.00000e+00
8.83934e+01	1.12010e+03	2.31420e+00	3.12629e+03	5.35075e+00	1.98997e+00	1.04218e+03	9.74932e+01	5.87322e+01	0.00000e+00
8.93929e+01	NaN	0.00000e+00	3.13141e+03	NaN	NaN	NaN	NaN	NaN	NaN
