P (MPa)		T (K)		r (km)		rho (kg m-3)	VP (km s-1)	VS (km s-1)	QS/gamma	
0.00000e+00	NaN	2.63410e+03	9.32740e+02	NaN	NaN	NaN
9.89402e+00	NaN	2.62667e+03	9.32740e+02	NaN	NaN	NaN
1.97880e+01	NaN	2.61924e+03	9.33611e+02	NaN	NaN	NaN
2.96821e+01	NaN	2.61183e+03	9.34452e+02	NaN	NaN	NaN
3.95761e+01	NaN	2.60443e+03	9.35257e+02	NaN	NaN	NaN
4.94701e+01	NaN	2.59706e+03	9.36018e+02	NaN	NaN	NaN
5.93641e+01	NaN	2.58970e+03	9.36727e+02	NaN	NaN	NaN
6.92581e+01	NaN	2.58236e+03	9.37377e+02	NaN	NaN	NaN
7.91522e+01	NaN	2.57504e+03	9.37960e+02	NaN	NaN	NaN
8.90462e+01	NaN	2.56773e+03	9.38466e+02	NaN	NaN	NaN
9.89402e+01	NaN	2.56045e+03	9.38887e+02	NaN	NaN	NaN
1.08834e+02	NaN	2.55317e+03	9.39214e+02	NaN	NaN	NaN
1.18728e+02	NaN	2.54591e+03	9.39437e+02	NaN	NaN	NaN
1.28622e+02	NaN	2.53867e+03	9.39547e+02	NaN	NaN	NaN
1.38516e+02	NaN	2.53144e+03	9.39534e+02	NaN	NaN	NaN
1.48410e+02	NaN	2.52422e+03	9.39391e+02	NaN	NaN	NaN
1.58304e+02	NaN	2.51702e+03	9.39111e+02	NaN	NaN	NaN
1.68198e+02	NaN	2.50982e+03	9.38690e+02	NaN	NaN	NaN
1.78092e+02	NaN	2.50264e+03	9.38127e+02	NaN	NaN	NaN
1.87986e+02	NaN	2.49547e+03	9.37425e+02	NaN	NaN	NaN
1.91569e+02	2.52503e+02	2.49340e+03	1.17829e+03	1.82771e+00	0.00000e+00	0.00000e+00
1.95151e+02	2.52506e+02	2.49134e+03	1.17936e+03	1.83363e+00	0.00000e+00	0.00000e+00
1.98733e+02	2.52510e+02	2.48928e+03	1.18042e+03	1.83952e+00	0.00000e+00	0.00000e+00
2.02315e+02	2.52514e+02	2.48722e+03	1.18148e+03	1.84537e+00	0.00000e+00	0.00000e+00
2.05898e+02	2.52520e+02	2.48517e+03	1.18253e+03	1.85118e+00	0.00000e+00	0.00000e+00
2.09480e+02	2.52526e+02	2.48312e+03	1.18357e+03	1.85697e+00	0.00000e+00	0.00000e+00
2.13062e+02	2.52532e+02	2.48107e+03	1.18460e+03	1.86271e+00	0.00000e+00	0.00000e+00
2.16644e+02	2.52540e+02	2.47902e+03	1.18563e+03	1.86843e+00	0.00000e+00	0.00000e+00
2.20227e+02	2.52547e+02	2.47697e+03	1.18666e+03	1.87410e+00	0.00000e+00	0.00000e+00
2.23809e+02	2.52556e+02	2.47493e+03	1.18767e+03	1.87974e+00	0.00000e+00	0.00000e+00
2.27391e+02	2.52565e+02	2.47289e+03	1.18868e+03	1.88535e+00	0.00000e+00	0.00000e+00
2.30973e+02	2.52575e+02	2.47085e+03	1.18969e+03	1.89092e+00	0.00000e+00	0.00000e+00
2.34556e+02	2.52585e+02	2.46882e+03	1.19069e+03	1.89645e+00	0.00000e+00	0.00000e+00
2.38138e+02	2.52596e+02	2.46678e+03	1.19168e+03	1.90194e+00	0.00000e+00	0.00000e+00
2.41720e+02	2.52608e+02	2.46475e+03	1.19267e+03	1.90739e+00	0.00000e+00	0.00000e+00
2.45302e+02	2.52620e+02	2.46272e+03	1.19365e+03	1.91281e+00	0.00000e+00	0.00000e+00
2.48885e+02	2.52633e+02	2.46069e+03	1.19463e+03	1.91818e+00	0.00000e+00	0.00000e+00
2.52467e+02	2.52646e+02	2.45867e+03	1.19560e+03	1.92351e+00	0.00000e+00	0.00000e+00
2.56049e+02	2.52660e+02	2.45665e+03	1.19656e+03	1.92879e+00	0.00000e+00	0.00000e+00
2.59631e+02	2.52675e+02	2.45463e+03	1.19752e+03	1.93403e+00	0.00000e+00	0.00000e+00
2.63214e+02	2.52690e+02	2.45261e+03	1.19848e+03	1.93923e+00	0.00000e+00	0.00000e+00
2.66796e+02	2.52706e+02	2.45059e+03	1.19943e+03	1.94438e+00	0.00000e+00	0.00000e+00
2.70378e+02	2.52722e+02	2.44858e+03	1.20038e+03	1.94950e+00	0.00000e+00	0.00000e+00
2.73960e+02	2.52739e+02	2.44657e+03	1.20132e+03	1.95457e+00	0.00000e+00	0.00000e+00
2.77543e+02	2.52757e+02	2.44456e+03	1.20225e+03	1.95960e+00	0.00000e+00	0.00000e+00
2.81125e+02	2.52775e+02	2.44255e+03	1.20318e+03	1.96459e+00	0.00000e+00	0.00000e+00
2.84707e+02	2.52794e+02	2.44054e+03	1.20411e+03	1.96955e+00	0.00000e+00	0.00000e+00
2.88289e+02	2.52813e+02	2.43854e+03	1.20503e+03	1.97447e+00	0.00000e+00	0.00000e+00
2.91872e+02	2.52833e+02	2.43654e+03	1.20595e+03	1.97935e+00	0.00000e+00	0.00000e+00
2.95454e+02	2.52854e+02	2.43454e+03	1.20686e+03	1.98420e+00	0.00000e+00	0.00000e+00
2.99036e+02	2.52875e+02	2.43254e+03	1.20777e+03	1.98902e+00	0.00000e+00	0.00000e+00
3.02618e+02	2.52897e+02	2.43055e+03	1.20867e+03	1.99380e+00	0.00000e+00	0.00000e+00
3.06201e+02	2.52919e+02	2.42855e+03	1.20957e+03	1.99855e+00	0.00000e+00	0.00000e+00
3.09783e+02	2.52942e+02	2.42656e+03	1.21046e+03	2.00327e+00	0.00000e+00	0.00000e+00
3.13365e+02	2.52965e+02	2.42457e+03	1.21136e+03	2.00796e+00	0.00000e+00	0.00000e+00
3.16947e+02	2.52989e+02	2.42258e+03	1.21224e+03	2.01262e+00	0.00000e+00	0.00000e+00
3.20530e+02	2.53014e+02	2.42060e+03	1.21312e+03	2.01726e+00	0.00000e+00	0.00000e+00
3.24112e+02	2.53039e+02	2.41862e+03	1.21400e+03	2.02188e+00	0.00000e+00	0.00000e+00
3.27694e+02	2.53064e+02	2.41663e+03	1.21488e+03	2.02648e+00	0.00000e+00	0.00000e+00
3.31276e+02	2.53090e+02	2.41466e+03	1.21575e+03	2.03106e+00	0.00000e+00	0.00000e+00
3.34859e+02	2.53117e+02	2.41268e+03	1.21661e+03	2.03564e+00	0.00000e+00	0.00000e+00
3.38441e+02	2.53144e+02	2.41070e+03	1.21748e+03	2.04020e+00	0.00000e+00	0.00000e+00
3.42023e+02	2.53172e+02	2.40873e+03	1.21834e+03	2.04475e+00	0.00000e+00	0.00000e+00
3.45605e+02	2.53200e+02	2.40676e+03	1.21919e+03	2.04929e+00	0.00000e+00	0.00000e+00
3.49188e+02	2.53229e+02	2.40479e+03	1.22004e+03	2.05383e+00	0.00000e+00	0.00000e+00
3.52770e+02	2.53258e+02	2.40282e+03	1.22089e+03	2.05836e+00	0.00000e+00	0.00000e+00
3.56352e+02	2.53280e+02	2.40088e+03	1.23500e+03	4.25153e+00	2.22245e+00	1.23988e+02
3.59934e+02	2.53479e+02	2.39893e+03	1.23559e+03	4.25052e+00	2.22192e+00	1.23988e+02
3.63517e+02	2.53679e+02	2.39699e+03	1.23618e+03	4.24951e+00	2.22139e+00	1.23988e+02
3.67099e+02	2.53878e+02	2.39505e+03	1.23676e+03	4.24851e+00	2.22086e+00	1.23988e+02
3.70681e+02	2.54077e+02	2.39311e+03	1.23734e+03	4.24752e+00	2.22034e+00	1.23988e+02
3.74263e+02	2.54276e+02	2.39118e+03	1.23792e+03	4.24652e+00	2.21983e+00	1.23988e+02
3.77846e+02	2.54475e+02	2.38924e+03	1.23849e+03	4.24554e+00	2.21931e+00	1.23988e+02
3.81428e+02	2.54675e+02	2.38731e+03	1.23906e+03	4.24456e+00	2.21880e+00	1.23988e+02
3.85010e+02	2.54876e+02	2.38537e+03	1.23963e+03	4.24359e+00	2.21829e+00	1.23988e+02
3.88593e+02	2.55078e+02	2.38344e+03	1.24019e+03	4.24262e+00	2.21779e+00	1.23988e+02
3.92175e+02	2.55279e+02	2.38151e+03	1.24076e+03	4.24166e+00	2.21729e+00	1.23988e+02
3.95757e+02	2.55481e+02	2.37958e+03	1.24131e+03	4.24071e+00	2.21679e+00	1.23988e+02
3.99339e+02	2.55682e+02	2.37765e+03	1.24187e+03	4.23976e+00	2.21629e+00	1.23988e+02
4.02922e+02	2.55884e+02	2.37573e+03	1.24242e+03	4.23882e+00	2.21580e+00	1.23988e+02
4.06504e+02	2.56084e+02	2.37380e+03	1.24297e+03	4.23788e+00	2.21531e+00	1.23988e+02
4.10086e+02	2.56283e+02	2.37188e+03	1.24352e+03	4.23695e+00	2.21482e+00	1.23988e+02
4.13668e+02	2.56481e+02	2.36996e+03	1.24406e+03	4.23603e+00	2.21434e+00	1.23988e+02
4.17251e+02	2.56680e+02	2.36804e+03	1.24460e+03	4.23511e+00	2.21386e+00	1.23988e+02
4.20833e+02	2.56879e+02	2.36612e+03	1.24513e+03	4.23420e+00	2.21338e+00	1.23988e+02
4.24415e+02	2.57078e+02	2.36420e+03	1.24567e+03	4.23329e+00	2.21291e+00	1.23988e+02
4.27997e+02	2.57276e+02	2.36229e+03	1.24620e+03	4.23239e+00	2.21244e+00	1.23988e+02
4.31580e+02	2.57473e+02	2.36037e+03	1.24672e+03	4.23150e+00	2.21197e+00	1.23988e+02
4.35162e+02	2.57666e+02	2.35846e+03	1.24725e+03	4.23061e+00	2.21151e+00	1.23988e+02
4.38744e+02	2.57860e+02	2.35654e+03	1.24777e+03	4.22973e+00	2.21105e+00	1.23988e+02
4.42326e+02	2.58053e+02	2.35463e+03	1.24828e+03	4.22885e+00	2.21059e+00	1.23988e+02
4.45909e+02	2.58246e+02	2.35272e+03	1.24880e+03	4.22798e+00	2.21013e+00	1.23988e+02
4.49491e+02	2.58439e+02	2.35082e+03	1.24931e+03	4.22712e+00	2.20968e+00	1.23988e+02
4.53073e+02	2.58633e+02	2.34891e+03	1.24982e+03	4.22626e+00	2.20923e+00	1.23988e+02
4.56655e+02	2.58824e+02	2.34700e+03	1.25032e+03	4.22541e+00	2.20879e+00	1.23988e+02
4.60238e+02	2.59011e+02	2.34510e+03	1.25082e+03	4.22456e+00	2.20835e+00	1.23988e+02
4.63820e+02	2.59197e+02	2.34320e+03	1.25132e+03	4.22372e+00	2.20791e+00	1.23988e+02
4.67402e+02	2.59383e+02	2.34129e+03	1.25181e+03	4.22289e+00	2.20747e+00	1.23988e+02
4.70984e+02	2.59570e+02	2.33939e+03	1.25231e+03	4.22206e+00	2.20704e+00	1.23988e+02
4.74567e+02	2.59756e+02	2.33749e+03	1.25279e+03	4.22124e+00	2.20661e+00	1.23988e+02
4.78149e+02	2.59943e+02	2.33560e+03	1.25328e+03	4.22042e+00	2.20618e+00	1.23988e+02
4.81731e+02	2.60127e+02	2.33370e+03	1.25376e+03	4.21961e+00	2.20576e+00	1.23988e+02
4.85313e+02	2.60306e+02	2.33181e+03	1.25424e+03	4.21880e+00	2.20534e+00	1.23988e+02
4.88896e+02	2.60485e+02	2.32991e+03	1.25471e+03	4.21800e+00	2.20492e+00	1.23988e+02
4.92478e+02	2.60664e+02	2.32802e+03	1.25519e+03	4.21721e+00	2.20450e+00	1.23988e+02
4.96060e+02	2.60843e+02	2.32613e+03	1.25566e+03	4.21642e+00	2.20409e+00	1.23988e+02
4.99642e+02	2.61022e+02	2.32424e+03	1.25612e+03	4.21564e+00	2.20368e+00	1.23988e+02
5.03225e+02	2.61201e+02	2.32235e+03	1.25658e+03	4.21487e+00	2.20328e+00	1.23988e+02
5.06807e+02	2.61378e+02	2.32046e+03	1.25704e+03	4.21410e+00	2.20287e+00	1.23988e+02
5.10389e+02	2.61549e+02	2.31858e+03	1.25750e+03	4.21333e+00	2.20247e+00	1.23988e+02
5.13971e+02	2.61721e+02	2.31669e+03	1.25795e+03	4.21257e+00	2.20208e+00	1.23988e+02
5.17554e+02	2.61892e+02	2.31481e+03	1.25840e+03	4.21182e+00	2.20168e+00	1.23988e+02
5.21136e+02	2.62063e+02	2.31292e+03	1.25885e+03	4.21107e+00	2.20129e+00	1.23988e+02
5.24718e+02	2.62234e+02	2.31104e+03	1.25929e+03	4.21033e+00	2.20091e+00	1.23988e+02
5.28300e+02	2.62405e+02	2.30916e+03	1.25973e+03	4.20959e+00	2.20052e+00	1.23988e+02
5.31883e+02	2.62575e+02	2.30729e+03	1.26017e+03	4.20887e+00	2.20014e+00	1.23988e+02
5.35465e+02	2.62738e+02	2.30541e+03	1.26060e+03	4.20814e+00	2.19976e+00	1.23988e+02
5.39047e+02	2.62902e+02	2.30353e+03	1.26103e+03	4.20742e+00	2.19939e+00	1.23988e+02
5.42629e+02	2.63065e+02	2.30166e+03	1.26146e+03	4.20671e+00	2.19901e+00	1.23988e+02
5.46212e+02	2.63228e+02	2.29978e+03	1.26189e+03	4.20600e+00	2.19864e+00	1.23988e+02
5.49794e+02	2.63391e+02	2.29791e+03	1.26231e+03	4.20530e+00	2.19828e+00	1.23988e+02
5.53376e+02	2.63555e+02	2.29604e+03	1.26273e+03	4.20460e+00	2.19791e+00	1.23988e+02
5.56958e+02	2.63718e+02	2.29417e+03	1.26314e+03	4.20391e+00	2.19755e+00	1.23988e+02
5.60541e+02	2.63873e+02	2.29230e+03	1.26355e+03	4.20323e+00	2.19719e+00	1.23988e+02
5.64123e+02	2.64029e+02	2.29043e+03	1.26396e+03	4.20255e+00	2.19684e+00	1.23988e+02
5.67705e+02	2.64184e+02	2.28857e+03	1.26437e+03	4.20187e+00	2.19648e+00	1.23988e+02
5.71287e+02	2.64339e+02	2.28670e+03	1.26477e+03	4.20120e+00	2.19613e+00	1.23988e+02
5.74870e+02	2.64495e+02	2.28484e+03	1.26517e+03	4.20054e+00	2.19579e+00	1.23988e+02
5.78452e+02	2.64650e+02	2.28297e+03	1.26557e+03	4.19988e+00	2.19544e+00	1.23988e+02
5.82034e+02	2.64806e+02	2.28111e+03	1.26596e+03	4.19923e+00	2.19510e+00	1.23988e+02
5.85616e+02	2.64954e+02	2.27925e+03	1.26635e+03	4.19858e+00	2.19476e+00	1.23988e+02
5.89199e+02	2.65102e+02	2.27739e+03	1.26674e+03	4.19794e+00	2.19443e+00	1.23988e+02
5.92781e+02	2.65250e+02	2.27553e+03	1.26712e+03	4.19730e+00	2.19410e+00	1.23988e+02
5.96363e+02	2.65398e+02	2.27368e+03	1.26750e+03	4.19667e+00	2.19377e+00	1.23988e+02
5.99945e+02	2.65546e+02	2.27182e+03	1.26788e+03	4.19604e+00	2.19344e+00	1.23988e+02
6.03528e+02	2.65693e+02	2.26997e+03	1.26826e+03	4.19542e+00	2.19311e+00	1.23988e+02
6.07110e+02	2.65841e+02	2.26811e+03	1.26863e+03	4.19481e+00	2.19279e+00	1.23988e+02
6.10692e+02	2.65983e+02	2.26626e+03	1.26900e+03	4.19420e+00	2.19247e+00	1.23988e+02
6.14274e+02	2.66123e+02	2.26441e+03	1.26937e+03	4.19359e+00	2.19216e+00	1.23988e+02
6.17857e+02	2.66263e+02	2.26256e+03	1.26973e+03	4.19299e+00	2.19184e+00	1.23988e+02
6.21439e+02	2.66404e+02	2.26071e+03	1.27009e+03	4.19240e+00	2.19153e+00	1.23988e+02
6.25021e+02	2.66544e+02	2.25887e+03	1.27045e+03	4.19181e+00	2.19122e+00	1.23988e+02
6.28603e+02	2.66685e+02	2.25702e+03	1.27080e+03	4.19122e+00	2.19092e+00	1.23988e+02
6.32186e+02	2.66825e+02	2.25517e+03	1.27115e+03	4.19064e+00	2.19061e+00	1.23988e+02
6.35768e+02	2.67035e+02	2.25333e+03	1.27150e+03	4.19007e+00	2.19032e+00	1.23988e+02
6.39350e+02	2.67262e+02	2.25157e+03	1.33473e+03	4.59161e+00	2.37047e+00	1.60382e+02
6.42932e+02	2.67488e+02	2.24982e+03	1.33476e+03	4.59156e+00	2.37044e+00	1.59614e+02
6.46515e+02	2.67715e+02	2.24806e+03	1.33479e+03	4.59150e+00	2.37041e+00	1.58852e+02
6.50097e+02	2.67942e+02	2.24631e+03	1.33483e+03	4.59145e+00	2.37038e+00	1.58093e+02
6.53679e+02	2.68169e+02	2.24455e+03	1.33486e+03	4.59139e+00	2.37035e+00	1.57340e+02
6.57261e+02	2.68396e+02	2.24280e+03	1.33489e+03	4.59134e+00	2.37032e+00	1.56592e+02
6.60844e+02	2.68638e+02	2.24105e+03	1.33492e+03	4.59128e+00	2.37030e+00	1.55801e+02
6.64426e+02	2.68884e+02	2.23930e+03	1.33495e+03	4.59123e+00	2.37027e+00	1.54999e+02
6.68008e+02	2.69131e+02	2.23754e+03	1.33498e+03	4.59118e+00	2.37024e+00	1.54202e+02
6.71590e+02	2.69378e+02	2.23579e+03	1.33502e+03	4.59112e+00	2.37021e+00	1.53411e+02
6.75173e+02	2.69624e+02	2.23404e+03	1.33505e+03	4.59107e+00	2.37019e+00	1.52625e+02
6.78755e+02	2.69871e+02	2.23229e+03	1.33508e+03	4.59102e+00	2.37016e+00	1.51844e+02
6.82337e+02	2.70118e+02	2.23054e+03	1.33511e+03	4.59096e+00	2.37013e+00	1.51069e+02
6.85919e+02	2.70357e+02	2.22879e+03	1.33514e+03	4.59091e+00	2.37010e+00	1.50322e+02
6.89502e+02	2.70593e+02	2.22704e+03	1.33517e+03	4.59086e+00	2.37008e+00	1.49590e+02
6.93084e+02	2.70829e+02	2.22530e+03	1.33520e+03	4.59080e+00	2.37005e+00	1.48864e+02
6.96666e+02	2.71065e+02	2.22355e+03	1.33523e+03	4.59075e+00	2.37002e+00	1.48142e+02
7.00248e+02	2.71301e+02	2.22180e+03	1.33527e+03	4.59069e+00	2.36999e+00	1.47426e+02
7.03831e+02	2.71537e+02	2.22005e+03	1.33530e+03	4.59064e+00	2.36996e+00	1.46713e+02
7.07413e+02	2.71773e+02	2.21831e+03	1.33533e+03	4.59058e+00	2.36994e+00	1.46006e+02
7.10995e+02	2.72003e+02	2.21656e+03	1.33536e+03	4.59053e+00	2.36991e+00	1.45321e+02
7.14577e+02	2.72229e+02	2.21482e+03	1.33539e+03	4.59047e+00	2.36988e+00	1.44653e+02
7.18160e+02	2.72454e+02	2.21308e+03	1.33543e+03	4.59042e+00	2.36985e+00	1.43988e+02
7.21742e+02	2.72680e+02	2.21133e+03	1.33546e+03	4.59036e+00	2.36982e+00	1.43328e+02
7.25324e+02	2.72906e+02	2.20959e+03	1.33549e+03	4.59031e+00	2.36979e+00	1.42672e+02
7.28906e+02	2.73132e+02	2.20785e+03	1.33552e+03	4.59025e+00	2.36976e+00	1.42020e+02
7.32489e+02	2.73358e+02	2.20610e+03	1.33555e+03	4.59020e+00	2.36974e+00	1.41372e+02
7.36071e+02	2.73578e+02	2.20436e+03	1.33559e+03	4.59014e+00	2.36971e+00	1.40743e+02
7.39653e+02	2.73795e+02	2.20262e+03	1.33562e+03	4.59008e+00	2.36968e+00	1.40129e+02
7.43236e+02	2.74011e+02	2.20088e+03	1.33565e+03	4.59003e+00	2.36965e+00	1.39520e+02
7.46818e+02	2.74227e+02	2.19914e+03	1.33568e+03	4.58997e+00	2.36962e+00	1.38914e+02
7.50400e+02	2.74444e+02	2.19740e+03	1.33572e+03	4.58992e+00	2.36959e+00	1.38312e+02
7.53982e+02	2.74660e+02	2.19567e+03	1.33575e+03	4.58986e+00	2.36956e+00	1.37713e+02
7.57565e+02	2.74876e+02	2.19393e+03	1.33578e+03	4.58980e+00	2.36953e+00	1.37118e+02
7.61147e+02	2.75088e+02	2.19219e+03	1.33582e+03	4.58975e+00	2.36950e+00	1.36537e+02
7.64729e+02	2.75296e+02	2.19046e+03	1.33585e+03	4.58969e+00	2.36947e+00	1.35973e+02
7.68311e+02	2.75503e+02	2.18872e+03	1.33588e+03	4.58963e+00	2.36944e+00	1.35412e+02
7.71894e+02	2.75711e+02	2.18698e+03	1.33592e+03	4.58958e+00	2.36942e+00	1.34854e+02
7.75476e+02	2.75918e+02	2.18525e+03	1.33595e+03	4.58952e+00	2.36939e+00	1.34299e+02
7.79058e+02	2.76126e+02	2.18352e+03	1.33598e+03	4.58946e+00	2.36936e+00	1.33747e+02
7.82640e+02	2.76333e+02	2.18178e+03	1.33601e+03	4.58941e+00	2.36933e+00	1.33198e+02
7.86223e+02	2.76537e+02	2.18005e+03	1.33605e+03	4.58935e+00	2.36930e+00	1.32661e+02
7.89805e+02	2.76736e+02	2.17832e+03	1.33608e+03	4.58929e+00	2.36927e+00	1.32140e+02
7.93387e+02	2.76936e+02	2.17659e+03	1.33612e+03	4.58923e+00	2.36924e+00	1.31622e+02
7.96969e+02	2.77135e+02	2.17486e+03	1.33615e+03	4.58917e+00	2.36921e+00	1.31106e+02
8.00552e+02	2.77334e+02	2.17313e+03	1.33618e+03	4.58912e+00	2.36918e+00	1.30594e+02
8.04134e+02	2.77533e+02	2.17140e+03	1.33622e+03	4.58906e+00	2.36915e+00	1.30084e+02
8.07716e+02	2.77732e+02	2.16967e+03	1.33625e+03	4.58900e+00	2.36912e+00	1.29576e+02
8.11298e+02	2.77929e+02	2.16794e+03	1.33628e+03	4.58894e+00	2.36909e+00	1.29078e+02
8.14881e+02	2.78121e+02	2.16621e+03	1.33632e+03	4.58888e+00	2.36906e+00	1.28596e+02
8.18463e+02	2.78312e+02	2.16448e+03	1.33635e+03	4.58883e+00	2.36903e+00	1.28115e+02
8.22045e+02	2.78504e+02	2.16276e+03	1.33639e+03	4.58877e+00	2.36900e+00	1.27638e+02
8.25627e+02	2.78695e+02	2.16103e+03	1.33642e+03	4.58871e+00	2.36897e+00	1.27163e+02
8.29210e+02	2.78887e+02	2.15931e+03	1.33645e+03	4.58865e+00	2.36894e+00	1.26690e+02
8.32792e+02	2.79078e+02	2.15758e+03	1.33649e+03	4.58859e+00	2.36891e+00	1.26219e+02
8.36374e+02	2.79268e+02	2.15586e+03	1.33652e+03	4.58853e+00	2.36888e+00	1.25756e+02
8.39956e+02	2.79452e+02	2.15414e+03	1.33656e+03	4.58847e+00	2.36885e+00	1.25307e+02
8.43539e+02	2.79636e+02	2.15241e+03	1.33659e+03	4.58842e+00	2.36882e+00	1.24861e+02
8.47121e+02	2.79821e+02	2.15069e+03	1.33663e+03	4.58836e+00	2.36879e+00	1.24417e+02
8.50703e+02	2.80005e+02	2.14897e+03	1.33666e+03	4.58830e+00	2.36875e+00	1.23975e+02
8.54285e+02	2.80190e+02	2.14725e+03	1.33669e+03	4.58824e+00	2.36872e+00	1.23536e+02
8.57868e+02	2.80374e+02	2.14553e+03	1.33673e+03	4.58818e+00	2.36869e+00	1.23098e+02
8.61450e+02	2.80557e+02	2.14381e+03	1.33676e+03	4.58812e+00	2.36866e+00	1.22665e+02
8.65032e+02	2.80735e+02	2.14209e+03	1.33680e+03	4.58806e+00	2.36863e+00	1.22248e+02
8.68614e+02	2.80912e+02	2.14037e+03	1.33683e+03	4.58800e+00	2.36860e+00	1.21832e+02
8.72197e+02	2.81090e+02	2.13866e+03	1.33687e+03	4.58794e+00	2.36857e+00	1.21418e+02
8.75779e+02	2.81268e+02	2.13694e+03	1.33690e+03	4.58788e+00	2.36854e+00	1.21006e+02
8.79361e+02	2.81446e+02	2.13523e+03	1.33694e+03	4.58782e+00	2.36851e+00	1.20596e+02
8.82943e+02	2.81623e+02	2.13351e+03	1.33697e+03	4.58776e+00	2.36848e+00	1.20187e+02
8.86526e+02	2.81800e+02	2.13180e+03	1.33701e+03	4.58770e+00	2.36845e+00	1.19783e+02
8.90108e+02	2.81972e+02	2.13008e+03	1.33704e+03	4.58764e+00	2.36842e+00	1.19392e+02
8.93690e+02	2.82144e+02	2.12837e+03	1.33708e+03	4.58758e+00	2.36839e+00	1.19004e+02
8.97272e+02	2.82315e+02	2.12666e+03	1.33711e+03	4.58752e+00	2.36835e+00	1.18617e+02
9.00855e+02	2.82487e+02	2.12495e+03	1.33715e+03	4.58746e+00	2.36832e+00	1.18231e+02
9.04437e+02	2.82659e+02	2.12323e+03	1.33718e+03	4.58740e+00	2.36829e+00	1.17848e+02
9.08019e+02	2.82830e+02	2.12152e+03	1.33722e+03	4.58734e+00	2.36826e+00	1.17466e+02
9.11601e+02	2.83001e+02	2.11982e+03	1.33725e+03	4.58728e+00	2.36823e+00	1.17086e+02
9.15184e+02	2.83167e+02	2.11811e+03	1.33729e+03	4.58722e+00	2.36820e+00	1.16720e+02
9.18766e+02	2.83333e+02	2.11640e+03	1.33732e+03	4.58716e+00	2.36817e+00	1.16356e+02
9.22348e+02	2.83499e+02	2.11469e+03	1.33736e+03	4.58710e+00	2.36814e+00	1.15993e+02
9.25930e+02	2.83665e+02	2.11298e+03	1.33739e+03	4.58704e+00	2.36810e+00	1.15632e+02
9.29513e+02	2.83831e+02	2.11128e+03	1.33743e+03	4.58698e+00	2.36807e+00	1.15272e+02
9.33095e+02	2.83997e+02	2.10957e+03	1.33747e+03	4.58692e+00	2.36804e+00	1.14913e+02
9.36677e+02	2.84163e+02	2.10787e+03	1.33750e+03	4.58686e+00	2.36801e+00	1.14557e+02
9.40259e+02	2.84324e+02	2.10617e+03	1.33754e+03	4.58679e+00	2.36798e+00	1.14213e+02
9.43842e+02	2.84485e+02	2.10446e+03	1.33757e+03	4.58673e+00	2.36795e+00	1.13870e+02
9.47424e+02	2.84645e+02	2.10276e+03	1.33761e+03	4.58667e+00	2.36792e+00	1.13529e+02
9.51006e+02	2.84806e+02	2.10106e+03	1.33764e+03	4.58661e+00	2.36788e+00	1.13189e+02
9.54588e+02	2.84967e+02	2.09936e+03	1.33768e+03	4.58655e+00	2.36785e+00	1.12851e+02
9.58171e+02	2.85127e+02	2.09766e+03	1.33771e+03	4.58649e+00	2.36782e+00	1.12514e+02
9.61753e+02	2.85288e+02	2.09596e+03	1.33775e+03	4.58643e+00	2.36779e+00	1.12178e+02
9.65335e+02	2.85444e+02	2.09426e+03	1.33779e+03	4.58637e+00	2.36776e+00	1.11853e+02
9.68917e+02	2.85600e+02	2.09256e+03	1.33782e+03	4.58630e+00	2.36773e+00	1.11530e+02
9.72500e+02	2.85756e+02	2.09087e+03	1.33786e+03	4.58624e+00	2.36769e+00	1.11208e+02
9.76082e+02	2.85912e+02	2.08917e+03	1.33789e+03	4.58618e+00	2.36766e+00	1.10888e+02
9.79664e+02	2.86068e+02	2.08747e+03	1.33793e+03	4.58612e+00	2.36763e+00	1.10569e+02
9.83246e+02	2.86224e+02	2.08578e+03	1.33797e+03	4.58606e+00	2.36760e+00	1.10251e+02
9.86829e+02	2.86380e+02	2.08409e+03	1.33800e+03	4.58600e+00	2.36757e+00	1.09934e+02
9.90411e+02	2.86532e+02	2.08239e+03	1.33804e+03	4.58594e+00	2.36754e+00	1.09627e+02
